Ball;Ball;Model;Model;MODEL;MODEL;MODEL;MODEL;MODEL;MODEL;MODEL;MODEL;MODEL;MODEL
displacement;displacement;contact_force;contact_force;Added_Mass;Added_Mass;Total_Energy;Total_Energy;Internal_Energy;Internal_Energy;Kinetic_Energy;Kinetic_Energy;Hourglass_Energy;Hourglass_Energy
time;displacement;time;force;time;mass;time;energy;time;energy;time;energy;time;energy
millisecond;dimensionless;millisecond;kilogram * millimeter / millisecond ** 2;millisecond;kilogram;millisecond;kilogram * millimeter ** 2 / millisecond ** 2;millisecond;kilogram * millimeter ** 2 / millisecond ** 2;millisecond;kilogram * millimeter ** 2 / millisecond ** 2;millisecond;kilogram * millimeter ** 2 / millisecond ** 2
0.0;0.0;0.0;1.6821604958410017e-28;0.0;0.0004974544936961474;0.0;3.2e-19;0.0;3.2e-19;0.0;0.0;0.0;0.0
0.1;2.3289444185618178e-05;0.1;1.939850682682365e-29;0.1;0.0004974544936961474;0.1;1.7141285665463626e-08;0.1;3.2e-19;0.1;1.714128566514282e-08;0.1;0.0
0.2;0.00016641350545730678;0.2;4.512275712608142e-28;0.2;0.0004974544936961474;0.2;2.5263107773174196e-07;0.2;3.2e-19;0.2;2.5263107773142576e-07;0.2;0.0
0.30000000000000004;0.0005378489795218581;0.30000000000000004;1.330970642499312e-27;0.30000000000000004;0.0004974544936961474;0.30000000000000004;1.1738012653538602e-06;0.30000000000000004;3.2e-19;0.30000000000000004;1.1738012653535578e-06;0.30000000000000004;0.0
0.4;0.001223624605641823;0.4;2.415048709692416e-27;0.4;0.0004974544936961474;0.4;3.298039828890238e-06;0.4;3.2e-19;0.4;3.2980398288899767e-06;0.4;0.0
0.5;0.0022799516247672207;0.5;2.8498669772742285e-27;0.5;0.0004974544936961474;0.5;6.913146073748243e-06;0.5;3.2e-19;0.5;6.913146073748167e-06;0.5;0.0
0.6000000000000001;0.003723958741745612;0.6000000000000001;8.413268499983334e-28;0.6000000000000001;0.0004974544936961474;0.6000000000000001;1.184668782499564e-05;0.6000000000000001;3.2e-19;0.6000000000000001;1.1846687824993954e-05;0.6000000000000001;0.0
0.7000000000000001;0.005537627244178602;0.7000000000000001;6.161265166167376e-27;0.7000000000000001;0.0004974544936961474;0.7000000000000001;1.7434094850215775e-05;0.7000000000000001;3.2e-19;0.7000000000000001;1.743409485021381e-05;0.7000000000000001;0.0
0.8;0.007665821028094454;0.8;1.992228906426908e-26;0.8;0.0004974544936961474;0.8;2.263820149436636e-05;0.8;3.2e-19;0.8;2.263820149436345e-05;0.8;0.0
0.9;0.010022796284875768;0.9;3.792294552748384e-26;0.9;0.0004974544936961474;0.9;2.6332773920536412e-05;0.9;3.2e-19;0.9;2.633277392053191e-05;0.9;0.0
1.0;0.012499632540791217;1.0;4.7674733920731986e-26;1.0;0.0004974544936961474;1.0;2.768404006753277e-05;1.0;3.2e-19;1.0;2.768404006752491e-05;1.0;0.0
1.1;0.014999632540791433;1.1;2.1447989807595806e-26;1.1;0.0004974544936961474;1.1;2.768772141148859e-05;1.1;3.2e-19;1.1;2.7687721411463174e-05;1.1;0.0
1.2000000000000002;0.01749963254079138;1.2000000000000002;8.210590031938265e-26;1.2000000000000002;0.0004974544936961474;1.2000000000000002;2.768772141150615e-05;1.2000000000000002;3.2e-19;1.2000000000000002;2.7687721411463174e-05;1.2000000000000002;0.0
1.3;0.019999632540791235;1.3;2.9614812230109313e-25;1.3;0.0004974544936961474;1.3;2.7687721411523714e-05;1.3;3.2e-19;1.3;2.7687721411463174e-05;1.3;0.0
1.4000000000000001;0.022499632540791095;1.4000000000000001;5.921097033574872e-25;1.4000000000000001;0.0004974544936961474;1.4000000000000001;2.7687721411541274e-05;1.4000000000000001;3.2e-19;1.4000000000000001;2.7687721411463174e-05;1.4000000000000001;0.0
1.5;0.02499963254079095;1.5;7.889602197088156e-25;1.5;0.0004974544936961474;1.5;2.768772141155884e-05;1.5;3.2e-19;1.5;2.7687721411463174e-05;1.5;0.0
1.6;0.027499632540790808;1.6;4.607897120878895e-25;1.6;0.0004974544936961474;1.6;2.76877214115764e-05;1.6;3.2e-19;1.6;2.7687721411463174e-05;1.6;0.0
1.7000000000000002;0.02999963254079067;1.7000000000000002;1.05869967223035e-24;1.7000000000000002;0.0004974544936961474;1.7000000000000002;2.768772141159396e-05;1.7000000000000002;3.2e-19;1.7000000000000002;2.7687721411463174e-05;1.7000000000000002;0.0
1.8;0.03249963254079088;1.8;4.3694401039549006e-24;1.8;0.0004974544936961474;1.8;2.768772141161152e-05;1.8;3.2e-19;1.8;2.7687721411463174e-05;1.8;0.0
1.9000000000000001;0.03499963254079145;1.9000000000000001;9.193274310864687e-24;1.9000000000000001;0.0004974544936961474;1.9000000000000001;2.768772141162908e-05;1.9000000000000001;3.2e-19;1.9000000000000001;2.7687721411463174e-05;1.9000000000000001;0.0
2.0;0.03749963254079202;2.0;1.2933543183141132e-23;2.0;0.0004974544936961474;2.0;2.7687721411646642e-05;2.0;3.2e-19;2.0;2.7687721411463174e-05;2.0;0.0
2.1;0.03999963254079259;2.1;9.08705137280508e-24;2.1;0.0004974544936961474;2.1;2.7687721411664206e-05;2.1;3.2e-19;2.1;2.7687721411463174e-05;2.1;0.0
2.2;0.04249963254079316;2.2;1.3014702022521236e-23;2.2;0.0004974544936961474;2.2;2.7687721411681767e-05;2.2;3.2e-19;2.2;2.7687721411463174e-05;2.2;0.0
2.3000000000000003;0.04499963254079374;2.3000000000000003;6.393859639759303e-23;2.3000000000000003;0.0004974544936961474;2.3000000000000003;2.7687721411699327e-05;2.3000000000000003;3.2e-19;2.3000000000000003;2.7687721411463174e-05;2.3000000000000003;0.0
2.4000000000000004;0.04749963254079431;2.4000000000000004;1.4194575378652076e-22;2.4000000000000004;0.0004974544936961474;2.4000000000000004;2.7687721411716888e-05;2.4000000000000004;3.2e-19;2.4000000000000004;2.7687721411463174e-05;2.4000000000000004;0.0
2.5;0.049999632540794876;2.5;2.1024431397652406e-22;2.5;0.0004974544936961474;2.5;2.768772141173445e-05;2.5;3.2e-19;2.5;2.7687721411463174e-05;2.5;0.0
2.6;0.05249963254079545;2.6;1.7012502865278092e-22;2.6;0.0004974544936961474;2.6;2.768772141175201e-05;2.6;3.2e-19;2.6;2.7687721411463174e-05;2.6;0.0
2.7;0.05499963254079602;2.7;1.4819258235106758e-22;2.7;0.0004974544936961474;2.7;2.7687721411769573e-05;2.7;3.2e-19;2.7;2.7687721411463174e-05;2.7;0.0
2.8000000000000003;0.0574996325407966;2.8000000000000003;9.27034076905246e-22;2.8000000000000003;0.0004974544936961474;2.8000000000000003;2.7687721411787134e-05;2.8000000000000003;3.2e-19;2.8000000000000003;2.7687721411463174e-05;2.8000000000000003;0.0
2.9000000000000004;0.05999963254079717;2.9000000000000004;2.1794551566127913e-21;2.9000000000000004;0.0004974544936961474;2.9000000000000004;2.7687721411804695e-05;2.9000000000000004;3.2e-19;2.9000000000000004;2.7687721411463174e-05;2.9000000000000004;0.0
3.0;0.06249963254079773;3.0;3.391715281620849e-21;3.0;0.0004974544936961474;3.0;2.7687721411822255e-05;3.0;3.2e-19;3.0;2.7687721411463174e-05;3.0;0.0
3.1;0.06499963254079831;3.1;3.0746906887454018e-21;3.1;0.0004974544936961474;3.1;2.7687721411839816e-05;3.1;3.2e-19;3.1;2.7687721411463174e-05;3.1;0.0
3.2;0.06749963254079888;3.2;1.4586727639334468e-21;3.2;0.0004974544936961474;3.2;2.768772141185738e-05;3.2;3.2e-19;3.2;2.7687721411463174e-05;3.2;0.0
3.3000000000000003;0.06999963254079945;3.3000000000000003;1.3300374164511446e-20;3.3000000000000003;0.0004974544936961474;3.3000000000000003;2.768772141187494e-05;3.3000000000000003;3.2e-19;3.3000000000000003;2.7687721411463174e-05;3.3000000000000003;0.0
3.4000000000000004;0.07249963254080002;3.4000000000000004;3.327426769175292e-20;3.4000000000000004;0.0004974544936961474;3.4000000000000004;2.76877214118925e-05;3.4000000000000004;3.2e-19;3.4000000000000004;2.7687721411463174e-05;3.4000000000000004;0.0
3.5;0.07499963254080058;3.5;5.433356942985865e-20;3.5;0.0004974544936961474;3.5;2.7687721411910062e-05;3.5;3.2e-19;3.5;2.7687721411463174e-05;3.5;0.0
3.6;0.07749963254080115;3.6;5.415712132623812e-20;3.6;0.0004974544936961474;3.6;2.7687721411927623e-05;3.6;3.2e-19;3.6;2.7687721411463174e-05;3.6;0.0
3.7;0.07999963254080174;3.7;9.6502031917451e-21;3.7;0.0004974544936961474;3.7;2.7687721411945187e-05;3.7;3.2e-19;3.7;2.7687721411463174e-05;3.7;0.0
3.8000000000000003;0.08249963254080231;3.8000000000000003;1.885029213838047e-19;3.8000000000000003;0.0004974544936961474;3.8000000000000003;2.7687721411962748e-05;3.8000000000000003;3.2e-19;3.8000000000000003;2.7687721411463174e-05;3.8000000000000003;0.0
3.9000000000000004;0.08499963254080288;3.9000000000000004;5.050525141490633e-19;3.9000000000000004;0.0004974544936961474;3.9000000000000004;2.768772141198031e-05;3.9000000000000004;3.2e-19;3.9000000000000004;2.7687721411463174e-05;3.9000000000000004;0.0
4.0;0.08749963254080344;4.0;8.647192272761379e-19;4.0;0.0004974544936961474;4.0;2.768772141199787e-05;4.0;3.2e-19;4.0;2.7687721411463174e-05;4.0;0.0
4.1000000000000005;0.08999963254080173;4.1000000000000005;9.351977942018881e-19;4.1000000000000005;0.0004974544936961474;4.1000000000000005;2.768772141201543e-05;4.1000000000000005;3.2e-19;4.1000000000000005;2.7687721411463174e-05;4.1000000000000005;0.0
4.2;0.09249963254080001;4.2;6.812752634870664e-20;4.2;0.0004974544936961474;4.2;2.7687721412032994e-05;4.2;3.2e-19;4.2;2.7687721411463174e-05;4.2;0.0
4.3;0.0949996325407983;4.3;2.6328782914458216e-18;4.3;0.0004974544936961474;4.3;2.7687721412050558e-05;4.3;3.2e-19;4.3;2.7687721411463174e-05;4.3;0.0
4.4;0.09749963254079659;4.4;7.619596872814128e-18;4.4;0.0004974544936961474;4.4;2.768772141206812e-05;4.4;3.2e-19;4.4;2.7687721411463174e-05;4.4;0.0
4.5;0.09999963254079487;4.5;1.3677148802167042e-17;4.5;0.0004974544936961474;4.5;2.768772141208568e-05;4.5;3.2e-19;4.5;2.7687721411463174e-05;4.5;0.0
4.6000000000000005;0.10249963254079317;4.6000000000000005;1.5894688159005918e-17;4.6000000000000005;0.0004974544936961474;4.6000000000000005;2.768772141210324e-05;4.6000000000000005;3.2e-19;4.6000000000000005;2.7687721411463174e-05;4.6000000000000005;0.0
4.7;0.10499963254079145;4.7;4.077291522241206e-18;4.7;0.0004974544936961474;4.7;2.76877214121208e-05;4.7;3.2e-19;4.7;2.7687721411463174e-05;4.7;0.0
4.800000000000001;0.10749963254078974;4.800000000000001;3.612002507176175e-17;4.800000000000001;0.0004974544936961474;4.800000000000001;2.7687721412138365e-05;4.800000000000001;3.2e-19;4.800000000000001;2.7687721411463174e-05;4.800000000000001;0.0
4.9;0.10999963254078803;4.9;1.1422401138523465e-16;4.9;0.0004974544936961474;4.9;2.7687721412155925e-05;4.9;3.2e-19;4.9;2.7687721411463174e-05;4.9;0.0
5.0;0.1124996325407863;5.0;2.1505271188762606e-16;5.0;0.0004974544936961474;5.0;2.7687721412173486e-05;5.0;3.2e-19;5.0;2.7687721411463174e-05;5.0;0.0
5.1000000000000005;0.1149996325407846;5.1000000000000005;2.666170997885994e-16;5.1000000000000005;0.0004974544936961474;5.1000000000000005;2.7687721412191047e-05;5.1000000000000005;3.2e-19;5.1000000000000005;2.7687721411463174e-05;5.1000000000000005;0.0
5.2;0.11749963254078288;5.2;1.1108801505259992e-16;5.2;0.0004974544936961474;5.2;2.7687721412208607e-05;5.2;3.2e-19;5.2;2.7687721411463174e-05;5.2;0.0
5.300000000000001;0.11999963254078118;5.300000000000001;4.84312285134302e-16;5.300000000000001;0.0004974544936961474;5.300000000000001;2.7687721412226168e-05;5.300000000000001;3.2e-19;5.300000000000001;2.7687721411463174e-05;5.300000000000001;0.0
5.4;0.12249963254077946;5.4;1.7007112093005925e-15;5.4;0.0004974544936961474;5.4;2.7687721412243732e-05;5.4;3.2e-19;5.4;2.7687721411463174e-05;5.4;0.0
5.5;0.12499963254077771;5.5;3.3620498075994445e-15;5.5;0.0004974544936961474;5.5;2.7687721412261293e-05;5.5;3.2e-19;5.5;2.7687721411463174e-05;5.5;0.0
5.6000000000000005;0.12749963254077318;5.6000000000000005;4.42248530500733e-15;5.6000000000000005;0.0004974544936961474;5.6000000000000005;2.7687721412278854e-05;5.6000000000000005;3.2e-19;5.6000000000000005;2.7687721411463174e-05;5.6000000000000005;0.0
5.7;0.1299996325407686;5.7;2.454540873120572e-15;5.7;0.0004974544936961474;5.7;2.7687721412296414e-05;5.7;3.2e-19;5.7;2.7687721411463174e-05;5.7;0.0
5.800000000000001;0.13249963254076402;5.800000000000001;6.298241801499463e-15;5.800000000000001;0.0004974544936961474;5.800000000000001;2.7687721412313975e-05;5.800000000000001;3.2e-19;5.800000000000001;2.7687721411463174e-05;5.800000000000001;0.0
5.9;0.13499963254075945;5.9;2.513703554868508e-14;5.9;0.0004974544936961474;5.9;2.7687721412331536e-05;5.9;3.2e-19;5.9;2.7687721411463174e-05;5.9;0.0
6.0;0.13749963254075487;6.0;5.226654137284369e-14;6.0;0.0004974544936961474;6.0;2.76877214123491e-05;6.0;3.2e-19;6.0;2.7687721411463174e-05;6.0;0.0
6.1000000000000005;0.13999963254075032;6.1000000000000005;7.264735793116034e-14;6.1000000000000005;0.0004974544936961474;6.1000000000000005;2.768772141236666e-05;6.1000000000000005;3.2e-19;6.1000000000000005;2.7687721411463174e-05;6.1000000000000005;0.0
6.2;0.14249963254074574;6.2;4.91647708823698e-14;6.2;0.0004974544936961474;6.2;2.768772141238422e-05;6.2;3.2e-19;6.2;2.7687721411463174e-05;6.2;0.0
6.300000000000001;0.1449996325407412;6.300000000000001;7.841482153030642e-14;6.300000000000001;0.0004974544936961474;6.300000000000001;2.7687721412401782e-05;6.300000000000001;3.2e-19;6.300000000000001;2.7687721411463174e-05;6.300000000000001;0.0
6.4;0.1474996325407366;6.4;3.685531185908439e-13;6.4;0.0004974544936961474;6.4;2.7687721412419343e-05;6.4;3.2e-19;6.4;2.7687721411463174e-05;6.4;0.0
6.5;0.14999963254073204;6.5;8.080276390389528e-13;6.5;0.0004974544936961474;6.5;2.7687721412436907e-05;6.5;3.2e-19;6.5;2.7687721411463174e-05;6.5;0.0
6.6000000000000005;0.1524996325407275;6.6000000000000005;1.1831116283268272e-12;6.6000000000000005;0.0004974544936961474;6.6000000000000005;2.7687721412454467e-05;6.6000000000000005;3.2e-19;6.6000000000000005;2.7687721411463174e-05;6.6000000000000005;0.0
6.7;0.1549996325407229;6.7;9.296876290981693e-13;6.7;0.0004974544936961474;6.7;2.7687721412472028e-05;6.7;3.2e-19;6.7;2.7687721411463174e-05;6.7;0.0
6.800000000000001;0.15749963254071836;6.800000000000001;9.121104926668196e-13;6.800000000000001;0.0004974544936961474;6.800000000000001;2.768772141248959e-05;6.800000000000001;3.2e-19;6.800000000000001;2.7687721411463174e-05;6.800000000000001;0.0
6.9;0.15999963254071378;6.9;5.355358735246375e-12;6.9;0.0004974544936961474;6.9;2.768772141250715e-05;6.9;3.2e-19;6.9;2.7687721411463174e-05;6.9;0.0
7.0;0.1624996325407092;7.0;1.2422438581495507e-11;7.0;0.0004974544936961474;7.0;2.7687721412524713e-05;7.0;3.2e-19;7.0;2.7687721411463174e-05;7.0;0.0
7.1000000000000005;0.16499963254070463;7.1000000000000005;1.9118302957488197e-11;7.1000000000000005;0.0004974544936961474;7.1000000000000005;2.7687721412542274e-05;7.1000000000000005;3.2e-19;7.1000000000000005;2.7687721411463174e-05;7.1000000000000005;0.0
7.2;0.16749963254070005;7.2;1.6920636578817178e-11;7.2;0.0004974544936961474;7.2;2.7687721412559838e-05;7.2;3.2e-19;7.2;2.7687721411463174e-05;7.2;0.0
7.300000000000001;0.1699996325406955;7.300000000000001;9.379851135916452e-12;7.300000000000001;0.0004974544936961474;7.300000000000001;2.76877214125774e-05;7.300000000000001;3.2e-19;7.300000000000001;2.7687721411463174e-05;7.300000000000001;0.0
7.4;0.17249963254069092;7.4;7.702902513783984e-11;7.4;0.0004974544936961474;7.4;2.768772141259496e-05;7.4;3.2e-19;7.4;2.7687721411463174e-05;7.4;0.0
7.5;0.17499963254068635;7.5;1.8990384233352935e-10;7.5;0.0004974544936961474;7.5;2.768772141261252e-05;7.5;3.2e-19;7.5;2.7687721411463174e-05;7.5;0.0
7.6000000000000005;0.1774996325406818;7.6000000000000005;3.067412189922532e-10;7.6000000000000005;0.0004974544936961474;7.6000000000000005;2.7687721412630084e-05;7.6000000000000005;3.2e-19;7.6000000000000005;2.7687721411463174e-05;7.6000000000000005;0.0
7.7;0.17999963254067722;7.7;2.996053276965862e-10;7.7;0.0004974544936961474;7.7;2.7687721412647645e-05;7.7;3.2e-19;7.7;2.7687721411463174e-05;7.7;0.0
7.800000000000001;0.18249963254067267;7.800000000000001;7.149351868812062e-11;7.800000000000001;0.0004974544936961474;7.800000000000001;2.7687721412665206e-05;7.800000000000001;3.2e-19;7.800000000000001;2.7687721411463174e-05;7.800000000000001;0.0
7.9;0.1849996325406681;7.9;1.0949583469401413e-09;7.9;0.0004974544936961474;7.9;2.7687721412682766e-05;7.9;3.2e-19;7.9;2.7687721411463174e-05;7.9;0.0
8.0;0.1874996325406635;8.0;2.8863315391432276e-09;8.0;0.0004974544936961474;8.0;2.7687721412700327e-05;8.0;3.2e-19;8.0;2.7687721411463174e-05;8.0;0.0
8.1;0.18999963254065894;8.1;4.8888992981827166e-09;8.1;0.0004974544936961474;8.1;2.768772141271789e-05;8.1;3.2e-19;8.1;2.7687721411463174e-05;8.1;0.0
8.200000000000001;0.19249963254065441;8.200000000000001;5.194976655294273e-09;8.200000000000001;0.0004974544936961474;8.200000000000001;2.7687721412735452e-05;8.200000000000001;3.2e-19;8.200000000000001;2.7687721411463174e-05;8.200000000000001;0.0
8.3;0.19499963254064984;8.3;2.1263092924578765e-10;8.3;0.0004974544936961474;8.3;2.7687721412753013e-05;8.3;3.2e-19;8.3;2.7687721411463174e-05;8.3;0.0
8.4;0.19749963254064526;8.4;1.5348438080257318e-08;8.4;0.0004974544936961474;8.4;2.7687721412770573e-05;8.4;3.2e-19;8.4;2.7687721411463174e-05;8.4;0.0
8.5;0.19999963254064068;8.5;4.360657447574015e-08;8.5;0.0004974544936961474;8.5;2.7687721412788134e-05;8.5;3.2e-19;8.5;2.7687721411463174e-05;8.5;0.0
8.6;0.2024996325406361;8.6;7.743405233395918e-08;8.6;0.0004974544936961474;8.6;2.7687721412805698e-05;8.6;3.2e-19;8.6;2.7687721411463174e-05;8.6;0.0
8.700000000000001;0.20499963254063158;8.700000000000001;8.858993051630386e-08;8.700000000000001;0.0004974544936961474;8.700000000000001;2.768772141282326e-05;8.700000000000001;3.2e-19;8.700000000000001;2.7687721411463174e-05;8.700000000000001;0.0
8.8;0.207499632540627;8.8;1.9171858388665977e-08;8.8;0.0004974544936961474;8.8;2.768772141284082e-05;8.8;3.2e-19;8.8;2.7687721411463174e-05;8.8;0.0
8.9;0.20999963254062243;8.9;2.1150230673468555e-07;8.9;0.0004974544936961474;8.9;2.768772141285838e-05;8.9;3.2e-19;8.9;2.7687721411463174e-05;8.9;0.0
9.0;0.21249963254061785;9.0;6.546702799774114e-07;9.0;0.0004974544936961474;9.0;2.768772141287594e-05;9.0;3.2e-19;9.0;2.7687721411463174e-05;9.0;0.0
9.1;0.21499963254061327;9.1;1.2191543952278304e-06;9.1;0.0004974544936961474;9.1;2.76877214128935e-05;9.1;3.2e-19;9.1;2.7687721411463174e-05;9.1;0.0
9.200000000000001;0.21749963254060872;9.200000000000001;1.4901726106384787e-06;9.200000000000001;0.0004974544936961474;9.200000000000001;2.7687721412911065e-05;9.200000000000001;3.2e-19;9.200000000000001;2.7687721411463174e-05;9.200000000000001;0.0
9.3;0.21999963254060415;9.3;5.697032748161484e-07;9.3;0.0004974544936961474;9.3;2.7687721412928626e-05;9.3;3.2e-19;9.3;2.7687721411463174e-05;9.3;0.0
9.4;0.22249963254059957;9.4;2.8523056568351317e-06;9.4;0.0004974544936961474;9.4;2.7687721412946187e-05;9.4;3.2e-19;9.4;2.7687721411463174e-05;9.4;0.0
9.5;0.224999632540595;9.5;9.763082373372874e-06;9.5;0.0004974544936961474;9.5;2.7687721412963748e-05;9.5;3.2e-19;9.5;2.7687721411463174e-05;9.5;0.0
9.600000000000001;0.22749963254059047;9.600000000000001;1.9084449811408026e-05;9.600000000000001;0.0004974544936961474;9.600000000000001;2.7687721412981308e-05;9.600000000000001;3.2e-19;9.600000000000001;2.7687721411463174e-05;9.600000000000001;0.0
9.700000000000001;0.2299996325405859;9.700000000000001;2.4777592299045605e-05;9.700000000000001;0.0004974544936961474;9.700000000000001;2.768772141299887e-05;9.700000000000001;3.2e-19;9.700000000000001;2.7687721411463174e-05;9.700000000000001;0.0
9.8;0.2324996325405813;9.8;1.30113250170289e-05;9.8;0.0004974544936961474;9.8;2.7687721413016433e-05;9.8;3.2e-19;9.8;2.7687721411463174e-05;9.8;0.0
9.9;0.23499963254057674;9.9;3.738545711545405e-05;9.9;0.0004974544936961474;9.9;2.7687721413033994e-05;9.9;3.2e-19;9.9;2.7687721411463174e-05;9.9;0.0
10.0;0.23749963254057216;10.0;0.00014455104522111887;10.0;0.0004974544936961474;10.0;2.7687721413051554e-05;10.0;3.2e-19;10.0;2.7687721411463174e-05;10.0;0.0
10.100000000000001;0.2399996325405676;10.100000000000001;0.0002970653528035485;10.100000000000001;0.0004974544936961474;10.100000000000001;2.7687721413069115e-05;10.100000000000001;3.2e-19;10.100000000000001;2.7687721411463174e-05;10.100000000000001;0.0
10.200000000000001;0.24249963254056303;10.200000000000001;0.00040787599269752095;10.200000000000001;0.0004974544936961474;10.200000000000001;2.7687721413086676e-05;10.200000000000001;3.2e-19;10.200000000000001;2.7687721411463174e-05;10.200000000000001;0.0
