Potting;Potting;Potting;Potting;MODEL;MODEL;MODEL;MODEL;MODEL;MODEL;MODEL;MODEL;MODEL;MODEL
Rot_y;Rot_y;Mom_y;Mom_y;Added_Mass;Added_Mass;Total_Energy;Total_Energy;Internal_Energy;Internal_Energy;Kinetic_Energy;Kinetic_Energy;Hourglass_Energy;Hourglass_Energy
time;angle;time;moment;time;mass;time;energy;time;energy;time;energy;time;energy
millisecond;dimensionless;millisecond;kilogram * millimeter ** 2 / millisecond ** 2;millisecond;kilogram;millisecond;kilogram * millimeter ** 2 / millisecond ** 2;millisecond;kilogram * millimeter ** 2 / millisecond ** 2;millisecond;kilogram * millimeter ** 2 / millisecond ** 2;millisecond;kilogram * millimeter ** 2 / millisecond ** 2
0.0;6.5468458305385e-07;0.0;0.00032801245643635657;0.0;0.011427736431577084;0.0;1.1999999999999999e-19;0.0;1.1999999999999999e-19;0.0;0.0;0.0;0.0
1.0;2.170783862886973e-06;0.9999993520000001;0.0004741788513080897;1.0;0.011427736488340246;1.0;2.0514227593675328e-10;1.0;1.0693226219043514e-11;1.0;1.9395163232410373e-10;1.0;1.302695119365294e-13
2.0;4.811945727954766e-06;1.9999987040000002;0.0004499498272190252;2.0;0.01142773652419242;2.0;8.866242729733206e-10;2.0;5.904150398830946e-11;2.0;8.243263882612843e-10;2.0;9.425884464336205e-13
3.0;8.478219051038333e-06;2.999998056;0.00042152367204005743;3.0;0.011427736554493067;3.0;2.096459897091233e-09;3.0;1.1816492573779465e-10;3.0;1.9725088018471128e-09;3.0;1.9276873659360096e-12
4.0;1.3428570257388268e-05;3.999997408;0.0005952076537122174;4.0;0.011427736573986196;4.0;3.798608331516972e-09;4.0;1.6081356386272896e-10;4.0;3.6323776680243693e-09;4.0;1.994352403983553e-12
5.0;2.0513917580420213e-05;4.99999676;0.000982471152752416;5.0;0.011427736583403098;5.0;5.94510430950216e-09;5.0;2.03236822286525e-10;5.0;5.73798260490607e-09;5.0;1.4154357557883541e-12
6.0;3.058519864090513e-05;5.999996112;0.0013090172377745021;6.0;0.011427736636974946;6.0;1.408953326526137e-08;6.0;3.836443060399548e-10;6.0;1.3698666659651857e-08;6.0;2.0420369317127527e-12
7.0;4.3903907031680446e-05;6.999995464;0.0013809394900785436;7.0;0.011427736691295893;7.0;2.6962624017277276e-08;7.0;8.510290194873176e-10;7.0;2.6088732742943464e-08;7.0;6.231817934761586e-12
8.0;6.037250637808143e-05;7.999994815999999;0.0013545201306869583;8.0;0.011427736745590248;8.0;4.473503397091559e-08;8.0;1.471809981876426e-09;8.0;4.322588568557014e-08;8.0;1.1445299279837265e-11
9.0;8.02391466609053e-05;8.999994168;0.001486367473140677;9.0;0.011427736780351298;9.0;6.713743336491693e-08;9.0;2.0931308831078015e-09;9.0;6.500823276561196e-08;9.0;1.2716992889898588e-11
10.0;0.00010432324430575173;9.99999352;0.0018144458134937602;10.0;0.011427736812923492;10.0;9.349086753929121e-08;10.0;2.804144409302642e-09;10.0;9.063348447282935e-08;10.0;1.0599908241555731e-11
11.0;0.0001334441767788526;10.999992872;0.0021357334091684998;11.0;0.011427736851780038;11.0;1.4185389813477456e-07;11.0;4.048756335375596e-09;11.0;1.3773834892187027e-07;11.0;1.0200867840760772e-11
12.0;0.00016785498424808808;11.999992224;0.002265926784045332;12.0;0.011427736898105143;12.0;2.03974818227299e-07;12.0;6.111939616406081e-09;12.0;1.9773810536287694e-07;12.0;1.608185958294492e-11
13.0;0.00020746299396100397;12.999991576;0.002282659048572835;13.0;0.011427736950569676;13.0;2.795563898966494e-07;13.0;8.846032371559548e-09;13.0;2.70493048596295e-07;13.0;2.367628846166226e-11
14.0;0.0002524994226904874;13.999990928;0.0024175466070571836;14.0;0.011427736990893419;14.0;3.6817477864245095e-07;14.0;1.2064257174692863e-08;14.0;3.558319173212138e-07;14.0;2.6188387109003106e-11
15.0;0.00030373175017312686;14.99999028;0.002724138068355879;15.0;0.011427737027987963;15.0;4.680758553750981e-07;15.0;1.595386326496336e-08;15.0;4.51707459339093e-07;15.0;2.4480467778262295e-11
16.0;0.00036192739010846637;15.999989632;0.003010816357119576;16.0;0.011427737066967583;16.0;6.14588745077262e-07;16.0;2.133428847402508e-08;16.0;5.927013942357757e-07;16.0;2.42534959312025e-11
17.0;0.0004273252521771547;16.999988984;0.003132973711606111;17.0;0.01142773711768605;17.0;7.883379592327163e-07;17.0;2.8607127007041147e-08;17.0;7.58917990874005e-07;17.0;3.178011244633735e-11
18.0;0.0004998403223675106;17.999988336;0.0031669614264711187;18.0;0.011427737172636069;18.0;9.88363359902426e-07;18.0;3.7735298992083524e-08;18.0;9.495214172293456e-07;18.0;4.203870035439716e-11
19.0;0.0005796806224388116;18.999987688;0.0032946235866457233;19.0;0.011427737220924442;19.0;1.2133939779054591e-06;19.0;4.845472172465726e-08;19.0;1.163481237324979e-06;19.0;4.416954750978595e-11
20.0;0.0006675424216311992;19.99998704;0.0035778723773996625;20.0;0.011427737260480204;20.0;1.4611471175778912e-06;20.0;6.112894470696967e-08;20.0;1.3981186517241003e-06;20.0;4.187165912236815e-11
21.0;0.0007641226650860799;20.999986392;0.0038501973129487447;21.0;0.011427737302131938;21.0;1.7858997563916148e-06;21.0;7.685473574120807e-08;21.0;1.706606467457744e-06;21.0;4.2300384354106566e-11
22.0;0.0008696400848948025;21.999985744;0.003955310560260253;22.0;0.011427737356659954;22.0;2.1535405094664366e-06;22.0;9.621485970824947e-08;22.0;2.054115669817227e-06;22.0;5.096738935535893e-11
23.0;0.0009840189846280567;22.999985096;0.003979767452422637;23.0;0.011427737412095363;23.0;2.564390951736726e-06;23.0;1.1932479831751371e-07;23.0;2.4409949696624398e-06;23.0;6.416848272330531e-11
24.0;0.0011074394208583282;23.999984448;0.004098205491740194;24.0;0.011427737463118556;24.0;3.016564928769418e-06;24.0;1.4582315173460323e-07;24.0;2.865574516357958e-06;24.0;6.65044531107436e-11
25.0;0.001240509732279722;24.9999838;0.004335806716814457;25.0;0.011427737505359864;25.0;3.5053528459896283e-06;25.0;1.762483751797669e-07;25.0;3.3227277123890864e-06;25.0;6.317702127098334e-11
26.0;0.001383839163760452;25.999983152;0.004563884447928883;26.0;0.011427737548814177;26.0;4.100850263839879e-06;26.0;2.1198436392993822e-07;26.0;3.881030561333768e-06;26.0;6.400262706640683e-11
27.0;0.0015376207604985601;26.999982504000002;0.0047040377507613276;27.0;0.011427737603451291;27.0;4.7566407694494445e-06;27.0;2.5396939031141855e-07;27.0;4.493082766158352e-06;27.0;7.313279358290125e-11
28.0;0.0017017896282736152;27.999981856;0.00483924992473475;28.0;0.011427737663055285;28.0;5.475757902804892e-06;28.0;3.023124280432283e-07;28.0;5.161932379027269e-06;28.0;8.826111508935333e-11
29.0;0.0018764930945657662;28.999981208;0.004884849060154265;29.0;0.011427737721172877;29.0;6.256936445066921e-06;29.0;3.5659217870146854e-07;29.0;5.886547960571745e-06;29.0;9.28461326217502e-11
30.0;0.0020622374930968157;29.99998056;0.004543660480052966;30.0;0.011427737764647056;30.0;7.091689075379586e-06;30.0;4.172331293281935e-07;30.0;6.658284687171764e-06;30.0;8.811326789312954e-11
31.0;0.0022595301816753445;30.999979912;0.004956493846298304;31.0;0.011427737814235953;31.0;8.059386135601165e-06;31.0;4.857030913802186e-07;31.0;7.554678286678303e-06;31.0;8.711904613042929e-11
32.0;0.0024685328209907344;31.999979264;0.008264368083944436;32.0;0.011427737866003367;32.0;9.100882283059097e-06;32.0;5.633499562141808e-07;32.0;8.51543739126694e-06;32.0;9.469664235619432e-11
33.0;0.002689192362580662;32.999978616;0.012283666322856945;33.0;0.01142773792227399;33.0;1.0226541612993478e-05;33.0;6.501039312797963e-07;33.0;9.550716977526645e-06;33.0;1.0988895985615422e-10
34.0;0.0029216204752971625;33.999977968;0.011853276952826331;34.0;0.011427744524832813;34.0;1.2076538466186767e-05;34.0;8.170692839384752e-07;34.0;1.0679488208535128e-05;34.0;1.1363036544475459e-09
35.0;0.0031662086114069513;34.99997732;0.008380344108458455;35.0;0.01142774638834677;35.0;1.5666732644429024e-05;35.0;1.1720280086428397e-06;35.0;1.3974850550936823e-05;35.0;7.47016132928241e-10
36.0;0.0034233489011695974;35.999976672;0.00833365721517482;36.0;0.011427746870604192;36.0;1.758631361595574e-05;36.0;1.953487220907108e-06;36.0;1.5323644698332736e-05;36.0;3.001986014525811e-10
37.0;0.003693168361526932;36.999976024;0.011644272761102482;37.0;0.011427747942359293;37.0;1.9284247228668083e-05;37.0;2.6384577141214937e-06;37.0;1.6063168331081203e-05;37.0;2.6551850376793685e-10
38.0;0.0039756279095590746;37.999975376;0.012229814240261568;38.0;0.011427748115452285;38.0;2.1163046290402644e-05;38.0;3.6080622175165426e-06;38.0;1.688771976085327e-05;38.0;3.6772084465144624e-10
39.0;0.004270800491349818;38.999974728;0.01053272186488498;39.0;0.011427748664921791;39.0;2.5058655818410198e-05;39.0;4.746816338801521e-06;39.0;1.91471348510134e-05;39.0;1.2585033942083194e-09
40.0;0.004578952691485963;39.99997408;0.01202184714398941;40.0;0.011427748804131803;40.0;2.841076846462531e-05;40.0;5.8008114412545435e-06;40.0;2.1827253420760664e-05;40.0;3.646020309498297e-10
41.0;0.004900351806477535;40.999973432;0.014617153283226483;41.0;0.011427749899143212;41.0;3.091218213715965e-05;41.0;7.05222507943265e-06;41.0;2.2414268819506324e-05;41.0;7.84511252789061e-10
42.0;0.0052350871275504115;41.999972784;0.013991198612173957;42.0;0.011427754971426536;42.0;3.722090535313901e-05;42.0;8.815719219598844e-06;42.0;2.5620831640021265e-05;42.0;3.311612581242836e-09
43.0;0.005583134481921966;42.999972136000004;0.01211384257535681;43.0;0.011427755611131242;43.0;4.260845078282392e-05;43.0;1.106642690474017e-05;43.0;2.8125640535747523e-05;43.0;2.9792305969029424e-09
44.0;0.005944526368141401;43.999971488;0.01140149426569791;44.0;0.011427755804442996;44.0;4.734976401489684e-05;44.0;1.4443456761826066e-05;44.0;2.9755214748101563e-05;44.0;1.8431936078169007e-09
45.0;0.006319398002932991;44.99997084;0.013288136397721036;45.0;0.011427755974102498;45.0;5.29552270665514e-05;45.0;1.6697123155197144e-05;45.0;3.248550488228225e-05;45.0;2.6816876712379327e-09
46.0;0.006707884803019674;45.999970192;0.018669321383260128;46.0;0.011427763325658357;46.0;5.762949954106998e-05;46.0;1.8149112198534557e-05;46.0;3.528374551501609e-05;46.0;3.3937733109338476e-09
47.0;0.007110035713175942;46.999969544;0.023711578271445388;47.0;0.011427763921738188;47.0;6.259693043489332e-05;47.0;1.9004911189855823e-05;47.0;3.914269070091392e-05;47.0;3.756862798603172e-09
48.0;0.007525843131081117;47.999968896;0.02417019190642345;48.0;0.011427765342785771;48.0;6.918653101006232e-05;48.0;2.1211508976139935e-05;48.0;4.291922923143365e-05;48.0;5.398438836559997e-09
49.0;0.007955299277525248;48.999968248;0.021715452337762356;49.0;0.011427766163155932;49.0;7.731172387420471e-05;49.0;2.4902434844706202e-05;49.0;4.6721426767935846e-05;49.0;7.029802435781098e-09
50.0;0.00839840359007412;49.9999676;0.019436943960643105;50.0;0.01142776671009033;50.0;8.58617580280275e-05;50.0;2.8308999910478632e-05;50.0;5.1673916405771584e-05;50.0;7.186091537804304e-09
51.0;0.00885515568005119;50.999966952;0.016640726958886284;51.0;0.011427767036628723;51.0;9.439809772368928e-05;51.0;3.0140245584336547e-05;51.0;5.822894569048442e-05;51.0;6.527282790218182e-09
52.0;0.009325563795489345;51.999966304;0.013188062185480107;52.0;0.011427767283400237;52.0;0.00010290841886775717;52.0;3.1692952854058786e-05;52.0;6.478494322710257e-05;52.0;5.628164055091771e-09
53.0;0.00980963652111579;52.999965656;0.012605292717778207;53.0;0.011427767346505944;53.0;0.00011163028165913639;53.0;3.437898166394302e-05;53.0;7.058851062953826e-05;53.0;4.319629190735607e-09
54.0;0.010307324904401217;53.999965008000004;0.015732449091939358;54.0;0.011427767370914563;54.0;0.0001197879537812131;54.0;3.781221354806917e-05;54.0;7.520881881239559e-05;54.0;3.098866747948311e-09
55.0;0.010818493517647522;54.99996436;0.01860714997584941;55.0;0.011427767427049878;55.0;0.0001281344524078642;55.0;4.068423586539736e-05;55.0;8.047809737033902e-05;55.0;3.246919593445836e-09
56.0;0.011343007188306498;55.999963712;0.020156874297669998;56.0;0.011427767526696865;56.0;0.0001381911902376501;56.0;4.278370641527701e-05;56.0;8.793979525763648e-05;56.0;4.041893368275401e-09
57.0;0.011880832919995468;56.999963064;0.023071797536602007;57.0;0.011427767647410006;57.0;0.00014894357728298453;57.0;4.476815704956135e-05;57.0;9.622209473229602e-05;57.0;4.372905979107279e-09
58.0;0.012431994870118049;57.999962416;0.02642775316763662;58.0;0.011427767920235397;58.0;0.00015997680668191236;58.0;4.707300049963257e-05;58.0;0.00010452543509440716;58.0;5.007848859594678e-09
59.0;0.012996403751734126;58.999961768;0.026549893351105327;59.0;0.011427768356981572;59.0;0.00017208618018603423;59.0;4.9454238530620465e-05;59.0;0.00011359860752515644;59.0;5.6672025144521965e-09
60.0;0.013573792318512459;59.99996112;0.023889822943181503;60.0;0.011427768635246478;60.0;0.00018549062426049455;60.0;5.1689192559352455e-05;60.0;0.00012412326226581257;60.0;6.360894901496945e-09
61.0;0.014163894940847202;60.999960472;0.02165533555825395;61.0;0.011427768731344172;61.0;0.00019903684327322063;61.0;5.385883105164247e-05;61.0;0.00013530680510971468;61.0;5.6329519890577954e-09
62.0;0.014766639063617411;61.999959824;0.020188752912061254;62.0;0.011427768763784691;62.0;0.00021113036453289253;62.0;5.58813435168086e-05;62.0;0.00014514181239836635;62.0;4.453455248319443e-09
63.0;0.015382062792501566;62.999959176;0.01870449480192087;63.0;0.011427768811786981;63.0;0.00022340769414098136;63.0;5.78122157727785e-05;63.0;0.00015499453798822777;63.0;4.230308717347636e-09
64.0;0.016010038181121643;63.999958528;0.01869804801357721;64.0;0.01142776885586267;64.0;0.00023652271030140488;64.0;5.9792041432558474e-05;64.0;0.00016568033654645777;64.0;4.025014197900345e-09
65.0;0.01665017357815608;64.99995788;0.020697079861738923;65.0;0.011427768905362101;65.0;0.000250152460267135;65.0;6.185163579227583e-05;65.0;0.0001770173299737653;65.0;3.6837989324160168e-09
66.0;0.01730207884403108;65.999957232;0.02243057635296754;66.0;0.011427768973456128;66.0;0.00026388422798525446;66.0;6.369950709596213e-05;66.0;0.0001885328099787755;66.0;4.147521735171597e-09
67.0;0.017965642579292573;66.999956584;0.023150124122500615;67.0;0.011427769093046677;67.0;0.00027875308949926777;67.0;6.520181579971871e-05;67.0;0.0002012450118582683;67.0;4.137856418895252e-09
68.0;0.018640916837476644;67.999955936;0.024446710828665823;68.0;0.011427769117843298;68.0;0.0002941914689504988;68.0;6.681113582541208e-05;68.0;0.00021457591284497813;68.0;4.1931866119346775e-09
69.0;0.019327739199225282;68.999955288;0.025900575490160005;69.0;0.011427769233221842;69.0;0.00030949666419639556;69.0;6.84878685307579e-05;69.0;0.00022795435172342786;69.0;4.397399569662111e-09
70.0;0.020025602828780735;69.99995464;0.025442988821801054;70.0;0.011427769297881894;70.0;0.0003249665794700525;70.0;6.977491860504598e-05;70.0;0.00024164206893909966;70.0;4.342240490735195e-09
71.0;0.020734002209913664;70.999953992;0.023653596604378813;71.0;0.011427769326642885;71.0;0.0003410142477995412;71.0;7.079746024025635e-05;71.0;0.000256008192888037;71.0;4.526013142805508e-09
72.0;0.021452789888426027;71.999953344;0.022538483890283383;72.0;0.011427769351306431;72.0;0.0003575079924734796;72.0;7.194691689504602e-05;72.0;0.00027097202218468813;72.0;3.816390512324276e-09
73.0;0.022182030653394243;72.999952696;0.021611359574940942;73.0;0.011427769370486887;73.0;0.0003733194030857246;73.0;7.303070961788649e-05;73.0;0.0002853755018829429;73.0;3.604163136663161e-09
74.0;0.022921531608226214;73.999952048;0.020010051674179106;74.0;0.011427769395546182;74.0;0.00038931600984218036;74.0;7.377511151686424e-05;74.0;0.00030006952231073213;74.0;4.080219651799469e-09
75.0;0.02367068326132881;74.9999514;0.019459255339995252;75.0;0.011427769460325275;75.0;0.0004062375763187471;75.0;7.439346215408305e-05;75.0;0.00031576588182510005;75.0;4.120047877020131e-09
76.0;0.024428877216084777;75.999950752;0.020790084137562163;76.0;0.01142776953505984;76.0;0.00042258342671537736;76.0;7.509692728387425e-05;76.0;0.00033103039174950274;76.0;3.911487100321598e-09
77.0;0.02519593335599956;76.999950104;0.021945971440225778;77.0;0.01142776955278449;77.0;0.00043867714974994324;77.0;7.567869396256988e-05;77.0;0.00034614258114639465;77.0;4.0071115956991405e-09
78.0;0.025971927390526103;77.999949456;0.022065363147595045;78.0;0.0114277695736947;78.0;0.0004550122110001571;78.0;7.597717082956346e-05;78.0;0.00036154395367442755;78.0;4.006810024283586e-09
79.0;0.02675664125353198;78.999948808;0.0223478378967124;79.0;0.011427769596411013;79.0;0.0004714282600307969;79.0;7.63086248245619e-05;79.0;0.00037707442810806454;79.0;4.142629384140278e-09
80.0;0.027549378292815813;79.99994816;0.022437795115447003;80.0;0.011427769614287406;80.0;0.0004878420560674315;80.0;7.67424605674836e-05;80.0;0.0003926586094504081;80.0;3.723326252964424e-09
81.0;0.02834944161764869;80.999947512;0.020662874771456903;81.0;0.011427769634318092;81.0;0.0005033020399989658;81.0;7.7017293796752e-05;81.0;0.00040730843025086233;81.0;3.5598747343426294e-09
82.0;0.02915662262504473;81.999946864;0.017545550227093074;82.0;0.011427769686423433;82.0;0.000519168918587088;82.0;7.716631224010652e-05;82.0;0.0004223491110798526;82.0;3.962306584895439e-09
83.0;0.029971006585493468;82.999946216;0.01698753555821811;83.0;0.01142776970169759;83.0;0.0005351718423198938;83.0;7.741563747246521e-05;83.0;0.0004375176081200653;83.0;3.943214039518175e-09
84.0;0.03079235518652074;83.999945568;0.022034087567904495;84.0;0.011427769731228202;84.0;0.0005504528048348382;84.0;7.772487046764212e-05;84.0;0.00045198881212128516;84.0;3.7120969429479787e-09
85.0;0.03161990105797517;84.99994492;0.02676039697742427;85.0;0.011427770015290342;85.0;0.0005660329120053541;85.0;7.800179692871796e-05;85.0;0.00046548001583612147;85.0;8.024744470941005e-09
86.0;0.03245287660600873;85.99994427200001;0.021532720795763887;86.0;0.011427780803777363;86.0;0.0005854231015321399;86.0;7.771409284508634e-05;86.0;0.0004766477497072059;86.0;2.3912679593964067e-08
87.0;0.033291050573684894;86.999943624;0.011722173505257668;87.0;0.011427787926346323;87.0;0.0006137993059749759;87.0;8.675832260299985e-05;87.0;0.0004932470640120625;87.0;3.1567639080338616e-08
88.0;0.034134515437641254;87.999942976;0.010719357864078596;88.0;0.011427793175448293;88.0;0.0006251335386100161;88.0;0.0001017191712387112;88.0;0.0004879339635299599;88.0;4.630611868655242e-08
89.0;0.034983018192373656;88.999942328;0.017245997059359214;89.0;0.011427796930709729;89.0;0.0006293925145800572;89.0;0.00011649892515003894;89.0;0.0004791109562026578;89.0;3.964738965505014e-08
90.0;0.035835739571587345;89.99994168;0.025084616607989475;90.0;0.0114278017564431;90.0;0.0006441338352755773;90.0;0.00012146301833501299;90.0;0.0004778795110191178;90.0;1.0359244888126531e-07
91.0;0.03669186028629245;90.999941032;0.03803421798695097;91.0;0.011427873925196737;91.0;0.0006553726929252838;91.0;0.0001302170551863029;91.0;0.0004778089850072284;91.0;9.61987255937234e-08
92.0;0.0375511324230728;91.999940384;0.060520665304994434;92.0;0.011427882901127097;92.0;0.0006555271160806697;92.0;0.00012532249580545106;92.0;0.0004803266326293377;92.0;1.1016063823987014e-07
93.0;0.03841365273582888;92.999939736;0.085681130849142;93.0;0.011427886521005272;93.0;0.000656034024510759;93.0;0.0001146968249606795;93.0;0.0004896208084527351;93.0;9.260028820400646e-08
94.0;0.039279159024933764;93.999939088;0.09544719537658057;94.0;0.01142790092496366;94.0;0.0006719951050790825;94.0;0.000101404400564033;94.0;0.000494138446452443;94.0;1.4391168351170747e-07
95.0;0.04014680513891429;94.99993844;0.08295615366899643;95.0;0.011427917983980377;95.0;0.0007165731029458658;95.0;0.00010196048847353498;95.0;0.0005422695564378574;95.0;1.5369287991958797e-07
96.0;0.04101574397514367;95.999937792;0.06649413254026182;96.0;0.011427919087877454;96.0;0.0007254169266802636;96.0;0.00010534724002966869;96.0;0.0005567482274410976;96.0;8.498857228642979e-08
97.0;0.04188568872001049;96.999937144;0.06250058372644109;97.0;0.01142792034947005;97.0;0.0007266308826541284;97.0;0.00010486136356882957;97.0;0.0005555631436200228;97.0;7.869306122681403e-08
98.0;0.04275671335698354;97.999936496;0.06354964217882389;98.0;0.011427921301663488;98.0;0.0007294706934273655;98.0;0.00010087367828083338;98.0;0.0005633665910696757;98.0;4.981540170526063e-08
