Lower;Lower;Upper;Upper
Pot_force_non_filter_z;Pot_force_non_filter_z;Pot_disp_non_filter_z;Pot_disp_non_filter_z
time;force;time;Displacement
millisecond;kilogram * millimeter / millisecond ** 2;millisecond;dimensionless
0.0;0.0;0.0;0.0
0.09999930571432092;-5.31830128930081e-08;0.1;4.118812241341454e-08
0.19999861142864184;-5.830361190852953e-08;0.2;1.6425081466413957e-07
0.29999791714296276;-8.094310159619319e-08;0.30000000000000004;3.693870562634665e-07
0.3999972228572837;-2.1807751160168046e-07;0.4;6.565954841569835e-07
0.4999965285716046;-2.3115242152326368e-07;0.5;1.0260753113156993e-06
0.5999958342859255;-2.92428403645226e-07;0.6000000000000001;1.4774272267961774e-06
0.6999951400002464;-4.832502524438527e-07;0.7000000000000001;2.01089246222753e-06
0.7999944457145673;-5.828383702369398e-07;0.8;2.646666419136574e-06
0.8999937514288883;-7.098706161578396e-07;0.9;3.5068664454922498e-06
0.9999930571432092;-1.038690954123673e-06;1.0;4.610681699406821e-06
1.09999236285753;-1.5471774259649636e-06;1.1;5.958673240017754e-06
1.199991668571851;-2.3293405995921606e-06;1.2000000000000002;7.550880199889307e-06
1.299990974286172;-3.2636691492249436e-06;1.3;9.38786791387494e-06
1.3999902800004929;-4.605388851344548e-06;1.4000000000000001;1.1468451209752188e-05
1.4999895857148138;-5.892147521233134e-06;1.5;1.3793402932964814e-05
1.5999888914291347;-6.876240967932735e-06;1.6;1.644038453512726e-05
1.6999881971434556;-8.286405519881169e-06;1.7000000000000002;1.9488564203292054e-05
1.7999875028577765;-9.478977554291178e-06;1.8;2.2936118084037593e-05
1.8999868085720975;-1.1429865852783552e-05;1.9000000000000001;2.678403443971761e-05
1.9999861142864184;-1.2972947850679105e-05;2.0;3.103222521323136e-05
2.0999854200007393;-1.4834491188096994e-05;2.1;3.5681518768437116e-05
2.19998472571506;-1.761264966671379e-05;2.2;4.0730550041656846e-05
2.299984031429381;-1.9580377656816896e-05;2.3000000000000003;4.619790642038816e-05
2.399983337143702;-2.181531164955739e-05;2.4000000000000004;5.219362648878747e-05
2.499982642858023;-2.5245000619241566e-05;2.5;5.873580398756048e-05
2.599981948572344;-2.7537190639932904e-05;2.6;6.582568192313527e-05
2.699981254286665;-3.085119049341369e-05;2.7;7.346095537499176e-05
2.7999805600009857;-3.4286998533036126e-05;2.8000000000000003;8.164299736132049e-05
2.8999798657153066;-3.771726111841704e-05;2.9000000000000004;9.037115546234695e-05
2.9999791714296276;-4.08688072195085e-05;3.0;9.964806691029397e-05
3.0999784771439485;-4.566432805475267e-05;3.1;0.00010953623539906962
3.1999777828582694;-5.0101229388216884e-05;3.2;0.00012010318083792719
3.2999770885725903;-5.4577161771712924e-05;3.3000000000000003;0.00013134933793450257
3.3999763942869112;-5.9189466007470634e-05;3.4000000000000004;0.00014327788594942052
3.499975700001232;-6.420442656968905e-05;3.5;0.00015588327690792473
3.599975005715553;-7.0216890762392e-05;3.6;0.0001691670503588475
3.699974311429874;-7.561445839965e-05;3.7;0.00018313201062288448
3.799973617144195;-8.161718712787555e-05;3.8000000000000003;0.00019779147642415388
3.899972922858516;-8.802813535227877e-05;3.9000000000000004;0.00021323082241302607
3.9999722285728367;-9.449964653474275e-05;4.0;0.00022946508983011496
4.099971534287158;-0.00010155323041348001;4.1000000000000005;0.0002464943447948177
4.199970840001479;-0.00010820781435406605;4.2;0.00026432183541826184
4.2999701457157995;-0.00011592085125357375;4.3;0.00028294157249556147
4.39996945143012;-0.00012400794839365767;4.4;0.0003023552607883668
4.499968757144441;-0.00013210807761707336;4.5;0.00032256902092898053
4.599968062858762;-0.00014049738457789157;4.6000000000000005;0.00034362427604920834
4.699967368573083;-0.00014923681784237338;4.7;0.000365572094178704
4.799966674287404;-0.00015821031972988592;4.800000000000001;0.00038841105742299715
4.899965980001725;-0.00016736388477988926;4.9;0.00041214314954581536
4.999965285716046;-0.00017725219225904593;5.0;0.00043676543946548563
5.099964591430367;-0.00018741606266842848;5.1000000000000005;0.0004622806720146254
5.199963897144688;-0.00019809122077243677;5.2;0.0004886889409293128
5.299963202859009;-0.00020845868599604473;5.300000000000001;0.0005159973387525288
5.39996250857333;-0.0002196097459343875;5.4;0.0005442656987172431
5.4999618142876505;-0.0002312353052446453;5.5;0.0005735007231005644
5.599961120001971;-0.00024271722765715126;5.6000000000000005;0.0006036975817714466
5.699960425716292;-0.0002554383991554995;5.7;0.0006348589490420274
5.799959731430613;-0.00026751850561156066;5.800000000000001;0.0006669869620870231
5.899959037144934;-0.000280548599269398;5.9;0.0007000906767687941
5.999958342859255;-0.0002942931492351287;6.0;0.0007341562852969212
6.099957648573576;-0.0003078220681417878;6.1000000000000005;0.0007692108198538359
6.199956954287897;-0.0003219678281687382;6.2;0.0008052801765701151
6.299956260002218;-0.0003366752538827557;6.300000000000001;0.0008423726751732148
6.399955565716539;-0.00035149913749477914;6.4;0.000880482709511212
6.49995487143086;-0.0003667009997623669;6.5;0.00091960722816989
6.599954177145181;-0.00038270557970264326;6.6000000000000005;0.0009597459706569519
6.6999534828595015;-0.0003982686094512407;6.7;0.0010008988012649752
6.7999527885738225;-0.00041468980383685297;6.800000000000001;0.0010430717093658532
6.899952094288143;-0.0004319024772789955;6.9;0.0010862878149626456
6.999951400002464;-0.0005836883663751069;7.0;0.0011305517809897454
7.099950705716785;-0.0007161950560816092;7.1000000000000005;0.0011758570080039766
7.199950011431106;-0.0008629868752543454;7.2;0.0012222072931638254
7.299949317145427;-0.00102287509418994;7.300000000000001;0.0012695967003943788
7.399948622859748;-0.001196353377722328;7.4;0.0013180282846333613
7.499947928574069;-0.001344549181475807;7.5;0.0013675051730091677
7.59994723428839;-0.001514187236641338;7.6000000000000005;0.0014180273873836305
7.699946540002711;-0.0016771180679730532;7.7;0.0014695891659694217
7.799945845717032;-0.0018373330342024653;7.800000000000001;0.0015221911382725067
7.899945151431353;-0.002011211367385307;7.9;0.0015758399480187018
7.9999444571456735;-0.0021786114442184203;8.0;0.0016305335048855522
8.099943762859994;-0.0023667040487949844;8.1;0.0016862653550586508
8.199943068574315;-0.0025495663927065683;8.200000000000001;0.0017430414957688813
8.299942374288637;-0.002733432284342197;8.3;0.0018008574298676134
8.399941680002957;-0.0029263309109923527;8.4;0.0018596944858520583
8.499940985717277;-0.003109827922438488;8.5;0.0019195486350535446
8.599940291431599;-0.0032967918402761506;8.6;0.0019804254129049863
8.69993959714592;-0.0035041693904032155;8.700000000000001;0.002042308610840717
8.79993890286024;-0.00369313463138445;8.8;0.0021052156892571072
8.89993820857456;-0.003898099006545929;8.9;0.0021691410254204924
8.999937514288883;-0.004102612807948329;9.0;0.002234081179717533
9.099936820003204;-0.004309105199729823;9.1;0.0023000099970823347
9.199936125717525;-0.004521622046362349;9.200000000000001;0.0023669036873496603
9.299935431431845;-0.0047345823829428035;9.3;0.0024347715891653186
9.399934737146166;-0.004936421697663287;9.4;0.0025036047761424944
9.499934042860488;-0.005155205354290331;9.5;0.002573402629375335
9.599933348574808;-0.005368762034450943;9.600000000000001;0.00264416449424557
9.699932654289128;-0.005607547376443591;9.700000000000001;0.002715893249546779
9.79993196000345;-0.005827175708755473;9.8;0.0027885781196144454
9.899931265717772;-0.006037688970074153;9.9;0.002862169596510862
9.999930571432092;-0.006272499927321487;10.0;0.0029366514480415945
10.099929877146412;-0.006494956087440443;10.100000000000001;0.00301202623231428
10.199929182860734;-0.00673749439572904;10.200000000000001;0.00308829153718739
10.299928488575055;-0.006974356222821788;10.3;0.0031654476832792206
10.399927794289376;-0.007215235853827689;10.4;0.0032434950795760713
10.499927100003696;-0.007448355623481171;10.5;0.003322437238503974
10.599926405718017;-0.007689364127893229;10.600000000000001;0.003402220537111151
10.69992571143234;-0.007936911415286867;10.700000000000001;0.0034827997306707205
10.79992501714666;-0.008185974718867858;10.8;0.0035641747535993286
10.89992432286098;-0.008434301047090026;10.9;0.0036463462353108402
10.999923628575301;-0.008698100440664002;11.0;0.0037293116796178823
11.099922934289623;-0.008956844913990535;11.100000000000001;0.0038130731873776995
11.199922240003943;-0.009221616789791302;11.200000000000001;0.0038976300401575154
11.299921545718263;-0.009468327365789557;11.3;0.00398296447323547
11.399920851432585;-0.009739724818465419;11.4;0.004068999709388207
11.499920157146907;-0.010004264506347284;11.5;0.0041557083504388396
11.599919462861227;-0.010268395722354294;11.600000000000001;0.004243102783210924
11.699918768575547;-0.01053903204837395;11.700000000000001;0.004331166129413254
11.799918074289868;-0.010809782150858045;11.8;0.004419928203539341
11.89991738000419;-0.011108894199620052;11.9;0.004509342760095334
11.99991668571851;-0.011371115983183236;12.0;0.004599467351506971
12.09991599143283;-0.011659035221708627;12.100000000000001;0.004690167105535527
12.199915297147152;-0.011938244734986399;12.200000000000001;0.004781456908084268
12.299914602861474;-0.012217371024501399;12.3;0.004873258584096311
12.399913908575794;-0.01251225618196673;12.4;0.004965631159121084
12.499913214290114;-0.012811611780164092;12.5;0.005058536623321374
12.599912520004436;-0.013102176796370553;12.600000000000001;0.005151991203873304
12.699911825718758;-0.013384117709998696;12.700000000000001;0.00524599840949705
12.799911131433078;-0.013693647471638462;12.8;0.005340513766347157
12.899910437147398;-0.013976112266429083;12.9;0.005435478259487232
12.99990974286172;-0.014282852872554973;13.0;0.005530809424249791
13.099909048576041;-0.014578666824787995;13.100000000000001;0.00562657677386106
13.199908354290361;-0.014883137077148115;13.200000000000001;0.005722720030289098
13.299907660004681;-0.015200162044795743;13.3;0.00581927072771582
13.399906965719003;-0.01549013897224211;13.4;0.005916229327169802
13.499906271433325;-0.01580359342923478;13.5;0.006013564419539735
13.599905577147645;-0.01611755561290616;13.600000000000001;0.006111252877351612
13.699904882861965;-0.016408864985415217;13.700000000000001;0.006209161597355324
13.799904188576287;-0.01674591480276566;13.8;0.00630732397242764
13.899903494290609;-0.017045156512450175;13.9;0.0064057387456679426
13.999902800004929;-0.017368443409973264;14.0;0.006504372553238963
14.099902105719249;-0.01768922716231855;14.100000000000001;0.006603286393401927
14.19990141143357;-0.017994458033937382;14.200000000000001;0.006702422775180889
14.299900717147892;-0.01831125452634781;14.3;0.006801770561646272
14.399900022862212;-0.018631260259413338;14.4;0.006901241971673827
14.499899328576532;-0.018953842858289383;14.5;0.007000795172488735
14.599898634290854;-0.0192817651694497;14.600000000000001;0.007100442636525772
14.699897940005176;-0.019574871648323208;14.700000000000001;0.007200121818135312
14.799897245719496;-0.01988658245865452;14.8;0.007299922164713558
14.899896551433816;-0.020203230667856887;14.9;0.007399827356669917
14.999895857148138;-0.020540658162287763;15.0;0.007499766960958116
15.09989516286246;-0.020847235580590793;15.100000000000001;0.007599798127905792
15.19989446857678;-0.02116233498593452;15.200000000000001;0.007699780654585159
15.2998937742911;-0.021487449753202378;15.3;0.007799777433629335
15.399893080005421;-0.021793746071115436;15.4;0.00789979698630255
15.499892385719743;-0.022131970349356694;15.5;0.007999828150398717
15.599891691434063;-0.02242522722875903;15.600000000000001;0.008099760021138762
15.699890997148383;-0.02274472158484361;15.700000000000001;0.008199791188086437
15.799890302862705;-0.023051163986856606;15.8;0.008299822210801052
15.899889608577027;-0.023379469556532043;15.9;0.008399751076352298
15.999888914291347;-0.02369141288008341;16.0;0.008499781660817935
16.099888220005667;-0.024007853904070602;16.1;0.008599811732749426
16.199887525719987;-0.02430906596507783;16.2;0.008699790826480737
16.29988683143431;-0.02462460192744222;16.3;0.008799768971730172
16.39988613714863;-0.024931421282777706;16.400000000000002;0.008899799564047736
16.49988544286295;-0.025251920426073868;16.5;0.008999831372562205
16.599884748577274;-0.025557196214666268;16.6;0.009099760378057457
16.699884054291594;-0.025862857094501764;16.7;0.00919979059369869
16.799883360005914;-0.02619509843150473;16.8;0.00929982262677915
16.899882665720234;-0.026483644162100667;16.900000000000002;0.009399748990590075
16.999881971434554;-0.026804517762051314;17.0;0.009499779208604167
17.099881277148878;-0.02710815607947658;17.1;0.009599811275805276
17.199880582863198;-0.027415666793980078;17.2;0.009699785675690966
17.299879888577518;-0.027727842483027332;17.3;0.009799770617736177
17.39987919429184;-0.028033531608636756;17.400000000000002;0.00989980273319213
17.49987850000616;-0.028350074080135155;17.5;0.009999832830084389
17.59987780572048;-0.02864861652339956;17.6;0.010099758900903989
17.6998771114348;-0.02895159836678639;17.7;0.010199789483079593
17.79987641714912;-0.029256106737302022;17.8;0.010299819461804303
17.899875722863445;-0.029579175428872947;17.900000000000002;0.010399755879059922
17.999875028577765;-0.029877952362994693;18.0;0.010499775862567126
18.099874334292085;-0.030194702930098995;18.1;0.010599806378351569
18.19987364000641;-0.030499384212061508;18.2;0.010699818740951965
18.29987294572073;-0.030793310398381422;18.3;0.010799766337673967
18.39987225143505;-0.031110481705531025;18.400000000000002;0.010899796551912725
18.49987155714937;-0.031422534058880396;18.5;0.010999826724510098
18.59987086286369;-0.03172676686640756;18.6;0.011099756812851733
18.699870168578013;-0.03203049196758209;18.7;0.0111997870303424
18.799869474292333;-0.03235209729772004;18.8;0.011299819091426406
18.899868780006653;-0.03266082720590349;18.900000000000002;0.011399759334755311
18.999868085720976;-0.032963367852624034;19.0;0.011499775645506687
19.099867391435296;-0.03328000865125616;19.1;0.011599807716433402
19.199866697149616;-0.0335901883478223;19.200000000000003;0.01169981555498684
19.299866002863936;-0.033899239600077395;19.3;0.011799764838481313
19.399865308578256;-0.03419641522733451;19.400000000000002;0.011899797305341256
19.49986461429258;-0.03454069673423494;19.5;0.011999827284851336
19.5998639200069;-0.03484194994129085;19.6;0.012099752496095396
19.69986322572122;-0.035142870377383895;19.700000000000003;0.012199784615920504
19.799862531435544;-0.03546433025102622;19.8;0.012299814941881412
19.899861837149864;-0.035770591691806256;19.900000000000002;0.012399773632485433
19.999861142864184;-0.036087255544697605;20.0;0.012499775091258202
20.099860448578504;-0.03640437099498426;20.1;0.01259980530272754
20.199859754292824;-0.036713074376788744;20.200000000000003;0.012699815102002328
20.299859060007147;-0.03704226661621939;20.3;0.012799767429081116
20.399858365721467;-0.037350739408788886;20.400000000000002;0.012899797643169515
20.499857671435787;-0.03767024237850189;20.5;0.012999827823381892
20.59985697715011;-0.03799278936544089;20.6;0.01309975976690403
20.69985628286443;-0.03830606578917938;20.700000000000003;0.013199789980992431
20.79985558857875;-0.03861997541257269;20.8;0.013299820023532432
20.89985489429307;-0.03893153184991365;20.900000000000002;0.013399750803147703
20.99985420000739;-0.03926642318271333;21.0;0.013499781387492768
21.099853505721715;-0.03955307304923625;21.1;0.013599811445737629
21.199852811436035;-0.039892697465513105;21.200000000000003;0.013699791473048199
21.299852117150355;-0.04020565669007597;21.3;0.013799772423522249
21.39985142286468;-0.04051587768371078;21.400000000000002;0.013899802637610648
21.499850728579;-0.040829517100653905;21.5;0.013999834791649821
21.59985003429332;-0.04115935682981762;21.6;0.01409976383002259
21.69984934000764;-0.041487228310319466;21.700000000000003;0.014199794046022948
21.79984864572196;-0.041778795080856496;21.8;0.014299826165848052
21.899847951436282;-0.04211522834681311;21.900000000000002;0.014399756167845505
21.999847257150602;-0.04241757162509199;22.0;0.01449978638647753
22.099846562864922;-0.04273444897948157;22.1;0.014599818380925346
22.199845868579246;-0.04306083413432268;22.200000000000003;0.014699749066481482
22.299845174293566;-0.04338291328250715;22.3;0.014799778726932116
22.399844480007886;-0.04370350052246619;22.400000000000002;0.014899810724922774
22.499843785722206;-0.044003127687039414;22.5;0.014999796267422148
22.599843091436526;-0.0443248123134647;22.6;0.015099767893786708
22.69984239715085;-0.044642688022108634;22.700000000000003;0.015199800385625326
22.79984170286517;-0.044940552344025365;22.8;0.015299830304813241
22.89984100857949;-0.04526899568798466;22.900000000000002;0.0153997565088434
22.999840314293813;-0.04558424699989155;23.0;0.015499788627878574
23.099839620008133;-0.04590240574001811;23.1;0.015599819212246338
23.199838925722453;-0.04619889916720467;23.200000000000003;0.015699849432136044
23.299838231436773;-0.04652177563106075;23.3;0.015799881163874534
23.399837537151093;-0.046834686483650446;23.400000000000002;0.01589970873550372
23.499836842865417;-0.04713953972276169;23.5;0.015999740855328824
23.599836148579737;-0.04746005337220739;23.6;0.01609977144068776
23.699835454294057;-0.04775422452586113;23.700000000000003;0.016199801658796364
23.79983476000838;-0.04808631561118049;23.8;0.016299833776789476
23.8998340657227;-0.048379235145617205;23.900000000000002;0.016399863990877877
23.99983337143702;-0.04871197460390451;24.0;0.01649978062938874
24.09983267715134;-0.04899871747013685;24.1;0.01659971804034128
24.19983198286566;-0.049307081357248636;24.200000000000003;0.016699750157927285
24.299831288579984;-0.04961852459880849;24.3;0.016799780372018517
24.399830594294304;-0.04993434542604211;24.400000000000002;0.01689981096363392
24.499829900008624;-0.05024294878810433;24.5;0.016999843078588255
24.599829205722948;-0.05054438432028989;24.6;0.01709987303698194
24.699828511437268;-0.05086163097913036;24.700000000000003;0.017199719143974175
24.799827817151588;-0.05114590264870249;24.8;0.017299723657702215
24.899827122865908;-0.0514705204422391;24.900000000000002;0.017399753877068495
24.999826428580228;-0.05176735140828982;25.0;0.017499785993803932
25.09982573429455;-0.052072406424358106;25.1;0.017599816208061128
25.19982504000887;-0.05240193422271663;25.200000000000003;0.01769984680036114
25.29982434572319;-0.052694309493877566;25.3;0.017799878300065245
25.399823651437515;-0.05301526797120084;25.400000000000002;0.017899704237586887
25.499822957151835;-0.05332547371421407;25.5;0.0179997344529475
25.599822262866155;-0.05362172106408582;25.6;0.018099766572772607
25.699821568580475;-0.05393391803870169;25.700000000000003;0.01819979715824786
25.799820874294795;-0.05423628032315522;25.8;0.018299827376240144
25.89982018000912;-0.05453960069908402;25.900000000000002;0.018399859479275246
25.99981948572344;-0.0548633173034955;26.0;0.018499872949102828
26.09981879143776;-0.05515897062610677;26.1;0.018599707957985774
26.199818097152082;-0.05546702895905258;26.200000000000003;0.018699740073463537
26.299817402866402;-0.05578567375092334;26.3;0.018799770287551934
26.399816708580722;-0.05609691769911696;26.400000000000002;0.01889980050164033
26.499816014295043;-0.05640784255754771;26.5;0.018999832994124506
26.599815320009363;-0.05670885577813328;26.6;0.019099862925079487
26.699814625723686;-0.05701854649219926;26.700000000000003;0.019199779684924163
26.799813931438006;-0.05732982304984667;26.8;0.019299722516060023
26.899813237152326;-0.0576454020479845;26.900000000000002;0.019399753100552614
26.99981254286665;-0.05797396133335907;27.0;0.019499783319802573
27.09981184858097;-0.05829144380446898;27.1;0.01959981543665433
27.19981115429529;-0.05858273345980966;27.200000000000003;0.019699845650888833
27.29981046000961;-0.05891545222662469;27.3;0.01979987542140075
27.39980976572393;-0.05922548999260384;27.400000000000002;0.019899707191639186
27.499809071438253;-0.05953290132393631;27.5;0.01999973740572758
27.599808377152574;-0.059846911191012424;27.6;0.02009976762097188
