Impactor;Impactor;Impactor;Impactor
Force;Force;Force_non_filter;Force_non_filter
time;force;time;force
millisecond;kilogram * millimeter / millisecond ** 2;millisecond;kilogram * millimeter / millisecond ** 2
0.0;1.1826820672227122e-13;0.0;0.0
0.05;3.407814939311064e-13;0.05;0.0
0.1;7.364832987429671e-13;0.1;0.0
0.15000000000000002;1.2857731280628564e-12;0.15000000000000002;0.0
0.2;1.8005552735032725e-12;0.2;0.0
0.25;1.8299215427578027e-12;0.25;0.0
0.30000000000000004;6.002081242208342e-13;0.30000000000000004;0.0
0.35000000000000003;2.9109444969476073e-12;0.35000000000000003;0.0
0.4;9.613912387297846e-12;0.4;0.0
0.45;1.9485339650214836e-11;0.45;0.0
0.5;3.0181833503693124e-11;0.5;0.0
0.55;3.5237549524104343e-11;0.55;0.0
0.6000000000000001;2.251788500071663e-11;0.6000000000000001;0.0
0.65;2.5570940289709617e-11;0.65;0.0
0.7000000000000001;1.2762407312895057e-10;0.7000000000000001;0.0
0.75;2.9134868300138855e-10;0.75;0.0
0.8;4.916221533917254e-10;0.8;0.0
0.8500000000000001;6.391739905195489e-10;0.8500000000000001;0.0
0.9;5.483406154357094e-10;0.9;0.0
0.9500000000000001;7.427156384407767e-11;0.9500000000000001;0.0
1.0;1.5805745282440628e-09;1.0;0.0
1.05;4.2155508798535855e-09;1.05;0.0
1.1;7.779799400849824e-09;1.1;0.0
1.1500000000000001;1.1104275309600465e-08;1.1500000000000001;0.0
1.2000000000000002;1.1432949054867716e-08;1.2000000000000002;0.0
1.25;4.0195374882500015e-09;1.25;0.0
1.3;1.7448922230168986e-08;1.3;0.0
1.35;5.866219671826679e-08;1.35;0.0
1.4000000000000001;1.1964960534756294e-07;1.4000000000000001;0.0
1.4500000000000002;1.8623839544838288e-07;1.4500000000000002;0.0
1.5;2.1888649847047248e-07;1.5;0.0
1.55;1.4298280303784123e-07;1.55;0.0
1.6;1.5018791159121726e-07;1.6;0.0
1.6500000000000001;7.764573705966808e-07;1.6500000000000001;0.0
1.7000000000000002;1.7860355043538092e-06;1.7000000000000002;0.0
1.75;3.0285583572381964e-06;1.75;0.0
1.8;3.95949940718979e-06;1.8;0.0
1.85;3.4391506800160698e-06;1.85;0.0
1.9000000000000001;3.42187455654199e-07;1.9000000000000001;0.0
1.9500000000000002;9.568932914742403e-06;1.9500000000000002;0.0
2.0;2.5790517880138227e-05;2.0;0.0
2.0500000000000003;4.784928080901798e-05;2.0500000000000003;0.0
2.1;6.863959250209156e-05;2.1;0.0
2.15;7.127378412622994e-05;2.15;0.0
2.2;2.652419764587439e-05;2.2;0.0
2.25;0.0001046948666856543;2.25;0.0
2.3000000000000003;0.0003580070100017988;2.3000000000000003;0.0
2.35;0.0007346974429027611;2.35;0.0
2.4000000000000004;0.0011490985088630193;2.4000000000000004;0.0
2.45;0.001359421099648071;2.45;0.0
2.5;0.0009069458238936787;2.5;0.0
2.5500000000000003;0.0008800328756234229;2.5500000000000003;0.0
2.6;0.004722880506627703;2.6;0.0
2.6500000000000004;0.010947668913037122;2.6500000000000004;0.0
2.7;0.018656371289994127;2.7;0.0
2.75;0.025630830991429782;2.75;-8.773397394446796e-05
2.8000000000000003;0.030259286266735436;2.8000000000000003;-0.08473296476616143
2.85;0.03245567234658137;2.85;0.0
2.9000000000000004;0.03195477151581225;2.9000000000000004;-0.00040205272028992484
2.95;0.028884331686840008;2.95;-0.11022871764809329
3.0;0.025602664307274182;3.0;0.0
3.0500000000000003;0.024220778811862454;3.0500000000000003;0.0
3.1;0.02406411515228474;3.1;-4.4087087974557306e-05
3.1500000000000004;0.024460510004683984;3.1500000000000004;-0.09931370144982393
3.2;0.027413125277722893;3.2;0.0
3.25;0.03474027333955961;3.25;0.0
3.3000000000000003;0.04483097235254247;3.3000000000000003;-0.00024359257270590537
3.35;0.054229460304062345;3.35;-0.1084829316045992
3.4000000000000004;0.060543150485760165;3.4000000000000004;-9.20367171371848e-05
3.45;0.06343352046056126;3.45;-0.14162396114590614
3.5;0.06408148211693558;3.5;-0.0003995149854969438
3.5500000000000003;0.06323050069544249;3.5500000000000003;-0.09845280935320802
3.6;0.06023736253024794;3.6;-0.0004180119737051945
3.6500000000000004;0.05555451466485747;3.6500000000000004;-0.17061172327153004
3.7;0.05188129026348387;3.7;0.0
3.75;0.05073961957693137;3.75;-5.960338941354724e-06
3.8000000000000003;0.05125030436079007;3.8000000000000003;-0.12313278294645838
3.85;0.05237229373535484;3.85;-0.0017416944892140948
3.9000000000000004;0.05320203995444222;3.9000000000000004;-0.066765991798817
3.95;0.05379903473797763;3.95;-0.06546308123856956
4.0;0.0580316927603558;4.0;-0.11744389241750554
4.05;0.0722623313975539;4.05;-0.012163890171425962
4.1000000000000005;0.09923676840003866;4.1000000000000005;-0.0005300971397907598
4.15;0.13459292865968409;4.15;-0.11885590891972599
4.2;0.16933577959477356;4.2;-0.06452037200451738
4.25;0.19620904904957262;4.25;-0.31154988652610516
4.3;0.21398263945319393;4.3;-0.17358471246896293
4.3500000000000005;0.22437802088837;4.3500000000000005;-0.1712256784012511
4.4;0.22745923038553945;4.4;-0.2573581592531181
4.45;0.2232524687462173;4.45;-0.17402197281340587
4.5;0.21757992332810341;4.5;-0.4298886946163868
4.55;0.22153260713139164;4.55;-0.06430760027609413
4.6000000000000005;0.24158796910714864;4.6000000000000005;-0.17720199019301097
4.65;0.2728599204368778;4.65;-0.21375702219837162
4.7;0.30243058218559615;4.7;-0.1904082393665184
4.75;0.320010024413231;4.75;-0.5175757971894067
4.800000000000001;0.3268970346617249;4.800000000000001;-0.310115212192824
4.8500000000000005;0.33167163897189594;4.8500000000000005;-0.3166197514804514
4.9;0.3399052824388525;4.9;-0.2090498956205558
4.95;0.35256895762060514;4.95;-0.4871538715683222
5.0;0.3674398406031551;5.0;-0.1996287547521884
5.050000000000001;0.37917246868401766;5.050000000000001;-0.3530172455359745
5.1000000000000005;0.3866291383896884;5.1000000000000005;-0.6501010100000616
5.15;0.3948464552457288;5.15;-0.17470905167134604
5.2;0.4047514871335694;5.2;-0.29823727756386864
5.25;0.41343332100914293;5.25;-0.6801580321420453
5.300000000000001;0.4209577981554922;5.300000000000001;-0.1756549426226053
5.3500000000000005;0.42769276766247705;5.3500000000000005;-0.5448988979182449
5.4;0.4331225942507107;5.4;-0.3766028878069709
5.45;0.4386537222913943;5.45;-0.502196821827674
5.5;0.4469090106327088;5.5;-0.3574250860188189
5.550000000000001;0.45967766070293725;5.550000000000001;-0.5305206476448422
5.6000000000000005;0.4759764217892062;5.6000000000000005;-0.3238484137505896
5.65;0.4918631146745459;5.65;-0.5621272580405213
5.7;0.5050044320191598;5.7;-0.48346609582524824
5.75;0.5184807233227355;5.75;-0.6040328614024495
5.800000000000001;0.5367436922445441;5.800000000000001;-0.37664367161771595
5.8500000000000005;0.5589564340399572;5.8500000000000005;-0.5618932392209933
5.9;0.5796848902758769;5.9;-0.5185273162855122
5.95;0.5965624025686843;5.95;-0.7083950679176992
6.0;0.6146715379415363;6.0;-0.5993550032840607
6.050000000000001;0.6411763187688094;6.050000000000001;-0.5356416176575848
6.1000000000000005;0.6776286263840927;6.1000000000000005;-0.6247926037986582
6.15;0.7189702875617101;6.15;-0.6496638543402891
6.2;0.7577345393746748;6.2;-0.7385918815893054
6.25;0.7889444680651599;6.25;-0.8080011939523021
6.300000000000001;0.812047297626998;6.300000000000001;-0.7881856634112219
6.3500000000000005;0.8286924538757516;6.3500000000000005;-0.8002012293357913
6.4;0.8400669755029173;6.4;-0.8278093256689132
6.45;0.8470592036306972;6.45;-0.8321979224315648
6.5;0.852329279164647;6.5;-0.9092083423427099
6.550000000000001;0.8597279660331062;6.550000000000001;-0.8013852051661197
6.6000000000000005;0.8709735220881574;6.6000000000000005;-0.8137267940701272
6.65;0.8853112133223181;6.65;-0.9573598902727766
6.7;0.9006211157096774;6.7;-0.7688903428066074
6.75;0.9139863607891568;6.75;-0.9788703492774795
6.800000000000001;0.9238911574658555;6.800000000000001;-0.9392213958530936
6.8500000000000005;0.9303777106158888;6.8500000000000005;-0.8395531279131115
6.9;0.9342675373182078;6.9;-1.0385054404797884
6.95;0.9382009167871344;6.95;-0.8880003162020167
7.0;0.9451277346097733;7.0;-0.9252599016081702
7.050000000000001;0.9563197093752367;7.050000000000001;-0.949922701805938
7.1000000000000005;0.9724535773510835;7.1000000000000005;-0.9638048829583927
7.15;0.9944186752154689;7.15;-0.9664204430272979
7.2;1.021663408896016;7.2;-0.9836072808052649
7.25;1.0499541364940395;7.25;-0.9565338153116852
7.300000000000001;1.0730290177107342;7.300000000000001;-1.1113155360914488
7.3500000000000005;1.0878648904777;7.3500000000000005;-1.1130355274153156
7.4;1.0964544966217853;7.4;-1.0778760436024073
7.45;1.1028252196628827;7.45;-1.0984038236763953
7.5;1.1104589453644382;7.5;-1.0886688747256148
7.550000000000001;1.121692715303602;7.550000000000001;-1.1137553986160922
7.6000000000000005;1.1373739300513317;7.6000000000000005;-1.1083680856059455
7.65;1.156204656232648;7.65;-1.1120184132555218
7.7;1.1753238004754594;7.7;-1.1750119372903043
7.75;1.1923794563401793;7.75;-1.1830743168028914
7.800000000000001;1.2067852820592053;7.800000000000001;-1.2020943660748953
7.8500000000000005;1.2192731373639574;7.8500000000000005;-1.2061332330807986
7.9;1.230781473474468;7.9;-1.2142655199794747
7.95;1.241715751959355;7.95;-1.223862000887593
8.0;1.2522306073099785;8.0;-1.2517042503788989
8.05;1.262903320345553;8.05;-1.255356087222303
8.1;1.274572085752589;8.1;-1.2553731224819558
8.15;1.2875992346866698;8.15;-1.272794246244338
8.200000000000001;1.3013704654496248;8.200000000000001;-1.2811275515249165
8.25;1.3142280193378313;8.25;-1.290473423850831
8.3;1.3246260327479962;8.3;-1.3317478905516469
8.35;1.332865731311477;8.35;-1.3561228352961445
8.4;1.3404389608499003;8.4;-1.2926178391624457
8.450000000000001;1.3478231005282975;8.450000000000001;-1.344025078808415
8.5;1.3549897254321206;8.5;-1.354128807260147
8.55;1.3636852543089422;8.55;-1.3991888581662089
8.6;1.3764318067057613;8.6;-1.310249511375503
8.65;1.3927129069636657;8.65;-1.355300644326523
8.700000000000001;1.408113441647947;8.700000000000001;-1.3831257520086633
8.75;1.4180687822544378;8.75;-1.4456100945002326
8.8;1.4219449860259004;8.8;-1.4521683572605217
8.85;1.4231524791957675;8.85;-1.4196722628640062
8.9;1.425601897222301;8.9;-1.3955379481975276
8.950000000000001;1.4307569137706018;8.950000000000001;-1.4139310250602328
9.0;1.438006886269845;9.0;-1.4315935218876488
9.05;1.4463560831081081;9.05;-1.4592969286856974
9.1;1.4544523196419525;9.1;-1.4011199718172618
9.15;1.4604100117059655;9.15;-1.4888094842193806
9.200000000000001;1.4632475495205048;9.200000000000001;-1.4677416176053082
9.25;1.463673338960156;9.25;-1.456340102431558
9.3;1.4636826600076134;9.3;-1.483946339733847
9.35;1.466130598669544;9.35;-1.4584467391273814
9.4;1.4734530296888801;9.4;-1.451275184577829
9.450000000000001;1.486047396491565;9.450000000000001;-1.458150296554639
9.5;1.501929086950646;9.5;-1.4816773029348431
9.55;1.5176988258161137;9.55;-1.4943056829957042
9.600000000000001;1.530289560913727;9.600000000000001;-1.5426433452889314
9.65;1.5383910656150344;9.65;-1.534359494866654
9.700000000000001;1.542380363132398;9.700000000000001;-1.5412260573747685
9.75;1.543373152840867;9.75;-1.543080682677905
9.8;1.542767799265189;9.8;-1.5386449864869867
9.850000000000001;1.5424132738907066;9.850000000000001;-1.5636154583783957
9.9;1.5441829547310233;9.9;-1.5161039347985121
9.950000000000001;1.5489903443972493;9.950000000000001;-1.5444071469744372
10.0;1.5568220207200616;10.0;-1.5541183929451206
10.05;1.5671353948599396;10.05;-1.5486973616025037
10.100000000000001;1.5785626736326324;10.100000000000001;-1.553941343429738
10.15;1.5892918393599524;10.15;-1.596447316956653
10.200000000000001;1.5983551642187261;10.200000000000001;-1.5904261118327603
10.25;1.6061102480658627;10.25;-1.611769047535995
10.3;1.6133628416628265;10.3;-1.5883307593855107
10.350000000000001;1.6203351621595323;10.350000000000001;-1.6157371138301175
10.4;1.626658243828793;10.4;-1.6182439858737079
10.450000000000001;1.632104796460269;10.450000000000001;-1.6334170902634306
10.5;1.6370509737048495;10.5;-1.6366984159848348
10.55;1.6421278776565906;10.55;-1.6301127692674275
10.600000000000001;1.647512628041327;10.600000000000001;-1.6368088100062017
10.65;1.6529338435834304;10.65;-1.6506789332166834
10.700000000000001;1.6583486211060177;10.700000000000001;-1.661154189489308
10.75;1.6641411201131346;10.75;-1.6521001587729163
10.8;1.6706638747442093;10.8;-1.6650205923696864
10.850000000000001;1.6777442242359122;10.850000000000001;-1.666178353553425
10.9;1.6844373511255963;10.9;-1.667148769414447
10.950000000000001;1.689593114813877;10.950000000000001;-1.6976034210031834
11.0;1.6930042760229964;11.0;-1.7019129405551023
11.05;1.6955960875809573;11.05;-1.6834707521991599
11.100000000000001;1.6986894744169374;11.100000000000001;-1.7040692624911973
11.15;1.7034121087879643;11.15;-1.6897135759478605
11.200000000000001;1.7102378513513068;11.200000000000001;-1.699559785959435
11.25;1.7185414599922901;11.25;-1.7053050397309215
11.3;1.7272175828744585;11.3;-1.7050353837009569
11.350000000000001;1.7361549997360204;11.350000000000001;-1.7986264614114897
11.4;1.7448356443283952;11.4;-1.6309195164000743
11.450000000000001;1.75066325365635;11.450000000000001;-1.7652686366066699
11.5;1.753112150401181;11.5;-1.869799340455403
11.55;1.7557969375217684;11.55;-1.661338138972492
11.600000000000001;1.761618641914016;11.600000000000001;-1.7471825216143198
11.65;1.7712989793626015;11.65;-1.795349030759794
11.700000000000001;1.7851684892284556;11.700000000000001;-1.7699007932281525
11.75;1.8010675615495884;11.75;-1.6847922382024731
11.8;1.8143084131287168;11.8;-1.8948370883854768
11.850000000000001;1.822747725988057;11.850000000000001;-1.8206342514060692
11.9;1.8285998982136273;11.9;-1.8316882129186318
11.950000000000001;1.8353032916716938;11.950000000000001;-1.8123581606711738
12.0;1.8447732021984031;12.0;-1.8208539413304023
12.05;1.8569251279738794;12.05;-1.8418339734444487
12.100000000000001;1.8705522624327326;12.100000000000001;-1.858965356025726
12.15;1.884146798225425;12.15;-1.8685155582604884
12.200000000000001;1.896239922836059;12.200000000000001;-1.8833140233895593
12.25;1.905949307723167;12.25;-1.9095420361313864
12.3;1.9134904338081509;12.3;-1.9085502044601679
12.350000000000001;1.9199183590447126;12.350000000000001;-1.9123250638056561
12.4;1.9264825009184443;12.4;-1.9205975026707902
12.450000000000001;1.934173957497757;12.450000000000001;-1.9218679559548721
12.5;1.9433984033523173;12.5;-1.9309268572923095
12.55;1.9538212397265573;12.55;-1.937897594426466
12.600000000000001;1.9646440293041478;12.600000000000001;-1.9566570477701275
12.65;1.9753182990201905;12.65;-1.9685514176303505
12.700000000000001;1.9862125880657906;12.700000000000001;-1.986978342893829
12.75;1.9984621054287743;12.75;-1.9801870627346423
12.8;2.0129903739324977;12.8;-1.9925797800431309
12.850000000000001;2.0296785393589536;12.850000000000001;-2.0059889907905126
12.9;2.0473300196240194;12.9;-2.0259624544310992
12.950000000000001;2.0642925954147797;12.950000000000001;-2.0516051585263995
13.0;2.0793155842602133;13.0;-2.0686443941917467
13.05;2.0921971659034346;13.05;-2.0887313632369353
13.100000000000001;2.103779537795787;13.100000000000001;-2.0949907613720327
13.15;2.1151263618107508;13.15;-2.0940108389794547
13.200000000000001;2.126621796665271;13.200000000000001;-2.112306312985378
13.25;2.137877155629364;13.25;-2.1241273070945925
13.3;2.1482425801834846;13.3;-2.142144655404043
13.350000000000001;2.157273476063383;13.350000000000001;-2.1472799822962823
13.4;2.1649846840467637;13.4;-2.163963623880286
13.450000000000001;2.1719168017726105;13.450000000000001;-2.164445680896956
13.5;2.1789481565552715;13.5;-2.173591865318545
13.55;2.1869511450731807;13.55;-2.1754281620730076
13.600000000000001;2.19651549303217;13.600000000000001;-2.185994529919401
13.65;2.2077699647416495;13.65;-2.19375341368
13.700000000000001;2.2202672251253075;13.700000000000001;-2.2018250271953312
13.75;2.2331693914471153;13.75;-2.224051383810562
13.8;2.24582610688906;13.8;-2.235936906007229
13.850000000000001;2.2583116186567933;13.850000000000001;-2.252887527647698
13.9;2.2712756055582854;13.9;-2.2595037870376187
13.950000000000001;2.284965618465939;13.950000000000001;-2.2531478099163906
14.0;2.2985975123055584;14.0;-2.2886574510110167
14.05;2.3110262992591792;14.05;-2.3021234258569416
14.100000000000001;2.3218325731369327;14.100000000000001;-2.318584582104799
14.15;2.3315443981997688;14.15;-2.32911358206199
14.200000000000001;2.34079984697474;14.200000000000001;-2.3114983291612496
14.25;2.349841245078913;14.25;-2.351924661949237
14.3;2.359003152433288;14.3;-2.3587693473183036
14.350000000000001;2.3686401242384285;14.350000000000001;-2.336475896337188
14.4;2.3785678262169885;14.4;-2.3822515312644006
14.450000000000001;2.3883389549877982;14.450000000000001;-2.371370400274423
14.5;2.3977214836578713;14.5;-2.396595703934674
14.55;2.40669234657677;14.55;-2.3923706251884975
14.600000000000001;2.4153126081606335;14.600000000000001;-2.4096621428231573
14.65;2.423674114852417;14.65;-2.4161220151838254
14.700000000000001;2.431751895840175;14.700000000000001;-2.4181108261804045
14.75;2.4393756626896947;14.75;-2.4337156134763607
14.8;2.4465510475080516;14.8;-2.4476159242992557
14.850000000000001;2.4535207220975974;14.850000000000001;-2.436661397514154
14.9;2.4604542264438325;14.9;-2.4594150755609507
14.950000000000001;2.467428181473802;14.950000000000001;-2.4557153047432685
15.0;2.4746502615700816;15.0;-2.4752531133681144
15.05;2.48239880466358;15.05;-2.468086156413332
15.100000000000001;2.4905718987225276;15.100000000000001;-2.4801534614606644
15.15;2.498404158875923;15.15;-2.483391654093364
15.200000000000001;2.5048701151697506;15.200000000000001;-2.5084539168423006
15.25;2.5093675013291903;15.25;-2.503472435464662
15.3;2.5120037694895077;15.3;-2.5178856840509996
15.350000000000001;2.5134351898592686;15.350000000000001;-2.5073982748666674
15.4;2.5145632786899643;15.4;-2.518123973755726
15.450000000000001;2.5162718039154646;15.450000000000001;-2.5094605127145035
15.5;2.5191657610400493;15.5;-2.5171010531983504
15.55;2.523307215942383;15.55;-2.511065638528074
15.600000000000001;2.5282553616610004;15.600000000000001;-2.5250684101093475
15.65;2.5335899297748683;15.65;-2.533264430854238
15.700000000000001;2.5392873130720615;15.700000000000001;-2.536123327032805
15.75;2.5453868941987867;15.75;-2.5303910828612093
15.8;2.5514965677381762;15.8;-2.548775509773521
15.850000000000001;2.5567319732637386;15.850000000000001;-2.5432856419673002
15.9;2.560036369902721;15.9;-2.564772217386791
15.950000000000001;2.5606764792014514;15.950000000000001;-2.559342613371846
16.0;2.558593954622748;16.0;-2.569321807308656
16.05;2.5543761347623675;16.05;-2.5556733941161114
16.1;2.5490146601181434;16.1;-2.558140049143162
16.150000000000002;2.5436816116919356;16.150000000000002;-2.548413667560179
16.2;2.539428046592001;16.2;-2.5402935088831513
16.25;2.536869695074395;16.25;-2.5352259868907954
16.3;2.536168630257291;16.3;-2.5394627993939367
16.35;2.5371982854543043;16.35;-2.530580898904741
16.400000000000002;2.5396598737755123;16.400000000000002;-2.542184682561706
16.45;2.5431216882703485;16.45;-2.533942428184728
16.5;2.5470508301811066;16.5;-2.54569876666386
16.55;2.550936636118162;16.55;-2.548975750969173
16.6;2.5542648365118192;16.6;-2.547352810783194
16.650000000000002;2.556330289305037;16.650000000000002;-2.552184855632121
16.7;2.5564001735401063;16.7;-2.5613267016423653
16.75;2.5541954224495935;16.75;-2.559194901098815
16.8;2.5501147528385104;16.8;-2.559530261164767
16.85;2.54497401564572;16.85;-2.545767001757002
16.900000000000002;2.539578241600561;16.900000000000002;-2.5459776898032165
16.95;2.5344771275191014;16.95;-2.536691173269304
17.0;2.529849353800184;17.0;-2.5325960969501544
17.05;2.525522467649459;17.05;-2.5267473466024892
17.1;2.521228927306857;17.1;-2.532995330351875
17.150000000000002;2.5167392060257874;17.150000000000002;-2.51311233154147
17.2;2.511839674874075;17.2;-2.5215552555218297
17.25;2.5065450526516257;17.25;-2.5156974559461447
17.3;2.5011855845644124;17.3;-2.504617491546062
17.35;2.496111682750806;17.35;-2.498653278400769
17.400000000000002;2.4915855384289696;17.400000000000002;-2.4990963718306736
17.45;2.487905672412662;17.45;-2.491968236520858
17.5;2.485227113498358;17.5;-2.4832928396960945
17.55;2.483226824300555;17.55;-2.4810377911273442
