Lower;Lower;Upper;Upper
Pot_force_non_filter_z;Pot_force_non_filter_z;Pot_disp_non_filter_z;Pot_disp_non_filter_z
time;force;time;Displacement
millisecond;kilogram * millimeter / millisecond ** 2;millisecond;dimensionless
0.0;0.0;0.0;0.0
0.09999916600005236;-8.064849997525362e-08;0.1;1.2331933863469733e-07
0.19999833200010472;-1.5562362848091105e-07;0.2;4.925493346587725e-07
0.29999749800015707;-2.824646274293911e-07;0.30000000000000004;1.107995530533629e-06
0.39999666400020945;-2.9214525677212366e-07;0.4;1.9699807652676944e-06
0.4999958300002618;-6.615557346778494e-07;0.5;3.077879490023358e-06
0.5999949960003141;-7.995751500337436e-07;0.6000000000000001;4.4320120646786545e-06
0.6999941620003666;-1.4376790082771362e-06;0.7000000000000001;6.032852115394718e-06
0.7999933280004189;-1.9247228630287292e-06;0.8;7.940371593225562e-06
0.8999924940004712;-3.061644781648087e-06;0.9;1.051925224972929e-05
0.9999916600005236;-4.856668742398116e-06;1.0;1.3831631861886705e-05
1.099990826000576;-7.275790742348538e-06;1.1;1.787589942649962e-05
1.1999899920006283;-8.934616289683006e-06;1.2000000000000002;2.2652868019901663e-05
1.2999891580006806;-1.2072333468183145e-05;1.3;2.8163321551297776e-05
1.3999883240007331;-1.4528155090183162e-05;1.4000000000000001;3.4404975983416085e-05
1.4999874900007855;-1.7154508849778373e-05;1.5;4.137905528690827e-05
1.5999866560008378;-2.0111680634515838e-05;1.6;4.932132315093357e-05
1.69998582200089;-2.471771318154637e-05;1.7000000000000002;5.8462969774911115e-05
1.7999849880009424;-2.8796002761073766e-05;1.8;6.88055134825698e-05
1.899984154000995;-3.2788052415974805e-05;1.9000000000000001;8.035046480293041e-05
1.9999833200010473;-3.851685397363123e-05;2.0;9.309479196835757e-05
2.0999824860010996;-4.409810644161665e-05;2.1;0.00010704000864064166
2.199981652001152;-5.013996178366492e-05;2.2;0.0001221877224878417
2.2999808180012042;-5.643862347655283e-05;2.3000000000000003;0.00013859207150740112
2.3999799840012566;-6.408312547970717e-05;2.4000000000000004;0.000156580277556078
2.499979150001309;-7.19486103873215e-05;2.5;0.00017620812854678413
2.599978316001361;-8.020567752715044e-05;2.6;0.00019747765768027864
2.699977482001414;-9.007186479221719e-05;2.7;0.0002203847188098905
2.7999766480014663;-9.966146368914525e-05;2.8000000000000003;0.00024493119156798873
2.8999758140015186;-0.00011049195147474926;2.9000000000000004;0.000271113747522654
2.999974980001571;-0.00012103221922888667;3.0;0.00029893401876357484
3.0999741460016232;-0.00013308493573733593;3.1;0.00032860336336694635
3.1999733120016756;-0.00014668185211935312;3.2;0.00036031316794704534
3.299972478001728;-0.00016014107553774274;3.3000000000000003;0.000394058507764564
3.39997164400178;-0.00017448242254787495;3.4000000000000004;0.000429841634856944
3.4999708100018325;-0.00018941269815727228;3.5;0.0004676653453448879
3.599969976001885;-0.00020571266749976945;3.6;0.0005075189110526211
3.699969142001937;-0.00022186081033970535;3.7;0.0005494043568700949
3.79996830800199;-0.00024034748212570716;3.8000000000000003;0.0005933737907490958
3.8999674740020422;-0.0002591097136553035;3.9000000000000004;0.0006396822932995165
3.9999666400020946;-0.00027867058509708766;4.0;0.0006883767470311196
4.099965806002147;-0.0002985056729024711;4.1000000000000005;0.0007394606120040053
4.199964972002199;-0.00032017882218146496;4.2;0.0007929273085578637
4.2999641380022515;-0.00034268001076188915;4.3;0.0008487801880167428
4.399963304002304;-0.0003658257918000316;4.4;0.0009070219489372386
4.499962470002356;-0.0003900827469054828;4.5;0.0009676471644549852
4.5999616360024085;-0.00041563026344570243;4.6000000000000005;0.001030802502178438
4.699960802002461;-0.00044223048096719473;4.7;0.001096636300575531
4.799959968002513;-0.0004692782995512596;4.800000000000001;0.001165142265437785
4.899959134002565;-0.0004972739602835893;4.9;0.0012363237099781792
4.999958300002618;-0.0005265779075560822;5.0;0.0013101809824641916
5.09995746600267;-0.0005572729250767313;5.1000000000000005;0.0013867169105744172
5.199956632002722;-0.0005884215238136353;5.2;0.0014659250077942556
5.299955798002775;-0.0006214820667739495;5.300000000000001;0.0015478360369036311
5.399954964002828;-0.0006550812753675481;5.4;0.0016326214557467298
5.49995413000288;-0.0006900014830461943;5.5;0.001720302366665204
5.599953296002933;-0.0007260880659049703;5.6000000000000005;0.0018108823809890112
5.699952462002985;-0.0007634741924163147;5.7;0.0019043649320258005
5.799951628003037;-0.0008024980909949212;5.800000000000001;0.002000742392953329
5.8999507940030895;-0.0008419196630677452;5.9;0.002100018840982544
5.999949960003142;-0.000884312207140006;6.0;0.0022021987960891107
6.099949126003194;-0.0009270321258834154;6.1000000000000005;0.0023073490722684597
6.1999482920032465;-0.0009712518343713793;6.2;0.002415551058864187
6.299947458003299;-0.0014684462779599226;6.300000000000001;0.0025268060615527177
6.399946624003351;-0.0016737791494806265;6.4;0.0026411042141776626
6.4999457900034034;-0.0023280897824268904;6.5;0.002758450233854768
6.599944956003456;-0.002686159186720511;6.6000000000000005;0.002878846872691402
6.699944122003508;-0.003272808187244479;6.7;0.003002286187752712
6.79994328800356;-0.0037109133743172917;6.800000000000001;0.0031287826248601433
6.899942454003613;-0.004238104453067387;6.9;0.00325844029729033
6.999941620003665;-0.004769162604039395;7.0;0.0033912672356843235
7.099940786003717;-0.005300565402878898;7.1000000000000005;0.003527217481562225
7.19993995200377;-0.005827374916562826;7.2;0.0036662949665080373
7.299939118003822;-0.006384034499928921;7.300000000000001;0.0038084919328363817
7.399938284003874;-0.00702798158463375;7.4;0.003953781264835078
7.4999374500039275;-0.007588155083443206;7.5;0.004102130449296492
7.59993661600398;-0.008235630217626308;7.6000000000000005;0.004253608115599648
7.699935782004032;-0.00880967514351933;7.7;0.00440820443801555
7.7999349480040845;-0.009465335383960124;7.800000000000001;0.0045660667838161055
7.899934114004137;-0.010083761112433146;7.9;0.004727097320129797
7.999933280004189;-0.010722605303471426;8.0;0.004891246675494746
8.09993244600424;-0.011447360114173001;8.1;0.005058518529132709
8.199931612004294;-0.012076725375105466;8.200000000000001;0.005228917182991221
8.299930778004345;-0.01275465285867887;8.3;0.0054024241044380444
8.399929944004398;-0.013456820761197813;8.4;0.005578985702314614
8.49992911000445;-0.014225315025612122;8.5;0.00575859610696693
8.599928276004503;-0.0149175609750137;8.6;0.0059412476984096645
8.699927442004556;-0.01564746186359309;8.700000000000001;0.006126943654111653
8.799926608004608;-0.016395841519905998;8.8;0.00631568757648707
8.899925774004661;-0.01715447810631583;8.9;0.006507472682809086
8.999924940004712;-0.01793757901771548;9.0;0.006702302022807556
9.099924106004766;-0.018701103047246963;9.1;0.006900102154313023
9.199923272004817;-0.019512888177793154;9.200000000000001;0.007100792014474659
9.29992243800487;-0.020341363909684985;9.3;0.007304373733326506
9.399921604004922;-0.02115162353805947;9.4;0.007510851627814853
9.499920770004975;-0.021967176866522033;9.5;0.007720214430906748
9.599919936005026;-0.02283776296299365;9.600000000000001;0.00793257422867223
9.69991910200508;-0.023690138078135616;9.700000000000001;0.008147911295034631
9.79991826800513;-0.024539022560369064;9.8;0.00836611109323549
9.899917434005184;-0.025432964585552435;9.9;0.008587004837615046
9.999916600005236;-0.02631632933327505;10.0;0.008810564145235287
10.099915766005289;-0.02719388272207163;10.100000000000001;0.009036793390871685
10.19991493200534;-0.028095376011599945;10.200000000000001;0.009265687633377852
10.299914098005393;-0.029030430459467318;10.3;0.009497253870164238
10.399913264005445;-0.029965543328637018;10.4;0.00973148870383553
10.499912430005498;-0.030904358449188988;10.5;0.009968387922207656
10.59991159600555;-0.031866222753052634;10.600000000000001;0.01020780188437916
10.699910762005603;-0.03281095355865999;10.700000000000001;0.010449606059205458
10.799909928005656;-0.03377835855056105;10.8;0.010693782520967159
10.899909094005707;-0.034772800412172636;10.9;0.010940329575278717
10.99990826000576;-0.035766011550739524;11.0;0.01118926702461134
11.099907426005812;-0.03675928010193907;11.100000000000001;0.01144057107217022
11.199906592005865;-0.03775605584480158;11.200000000000001;0.011694253984035192
11.299905758005917;-0.03877583952887546;11.3;0.011950271839254269
11.39990492400597;-0.03979235511244264;11.4;0.01220836454482528
11.499904090006021;-0.04082388595776087;11.5;0.012468476547984797
11.599903256006074;-0.04185248857830112;11.600000000000001;0.01273063395813249
11.699902422006126;-0.042886096872569744;11.700000000000001;0.012994800764093642
11.799901588006179;-0.043942488950543215;11.8;0.013261012927699243
11.89990075400623;-0.04500395894064909;11.9;0.013529244778056846
11.999899920006284;-0.04608780803291702;12.0;0.0137995048532189
12.099899086006335;-0.0471421837446013;12.100000000000001;0.014071597262225644
12.199898252006388;-0.04823062078309752;12.200000000000001;0.014345307792506656
12.29989741800644;-0.04931480960623044;12.3;0.014620667737066053
12.399896584006493;-0.05042851074840957;12.4;0.014897644020981864
12.499895750006544;-0.051553011831166645;12.5;0.015176251369701669
12.599894916006598;-0.05264170682419634;12.600000000000001;0.015456497459858099
12.699894082006649;-0.053734611682012635;12.700000000000001;0.015738523417608428
12.799893248006702;-0.05484423143348964;12.8;0.01602234672119228
12.899892414006755;-0.055988272300862334;12.9;0.01630739266452968
12.999891580006807;-0.05714459693172413;13.0;0.016593641149623927
13.09989074600686;-0.058277824698343965;13.100000000000001;0.016881103091522916
13.199889912006912;-0.059400384067896425;13.200000000000001;0.017169685074760105
13.299889078006965;-0.06053419180622166;13.3;0.017459560076128342
13.399888244007016;-0.06169944995268849;13.4;0.01775055925781632
13.49988741000707;-0.06282715166574293;13.5;0.018042762242484075
13.59988657600712;-0.06399601883112005;13.600000000000001;0.018335927350391582
13.699885742007174;-0.06515496395908364;13.700000000000001;0.018629816805157698
13.799884908007225;-0.06630808536498614;13.8;0.018924428129056845
13.899884074007279;-0.06746111162115628;13.9;0.01921975782574691
13.99988324000733;-0.06864337685103238;14.0;0.019515811888222878
14.099882406007383;-0.06983696369302965;14.100000000000001;0.019812585775562618
14.199881572007435;-0.07098974711955763;14.200000000000001;0.02011007819989236
14.299880738007488;-0.0721501477755395;14.3;0.020408294723545415
14.39987990400754;-0.07332402009421783;14.4;0.02070682271996248
14.499879070007593;-0.07450353692668725;14.5;0.02100535324904511
14.599878236007644;-0.07565904652885619;14.600000000000001;0.021304316130396992
14.699877402007697;-0.07685249642681281;14.700000000000001;0.02160358858566151
14.799876568007749;-0.07801936834303969;14.8;0.021902863416657863
14.899875734007802;-0.07918762297432234;14.9;0.022202449930201585
14.999874900007855;-0.08037148732020143;15.0;0.022502466844500444
15.099874066007906;-0.08155891384135337;15.100000000000001;0.0228024856038753
15.19987323200796;-0.0827342928843544;15.200000000000001;0.02310250252084848
15.299872398008011;-0.08388486931661789;15.3;0.02340252229365375
15.399871564008064;-0.08510449058257852;15.4;0.0237025410528382
15.499870730008116;-0.08627335935873176;15.5;0.024002557970105837
15.599869896008169;-0.08744715555608308;15.600000000000001;0.024302577742807054
15.69986906200822;-0.08862311747634269;15.700000000000001;0.0246025965018011
15.799868228008274;-0.08977997811706463;15.8;0.024902613419363197
15.899867394008325;-0.0909647566626849;15.9;0.025202633191960356
15.999866560008378;-0.09214473906266481;16.0;0.025502651950764
16.09986572600843;-0.09333438926268159;16.1;0.025802668864868938
16.19986489200848;-0.0944824852432176;16.2;0.026102685781365903
16.299864058008534;-0.09566478481663616;16.3;0.026402707399726905
16.399863224008588;-0.09683799067253326;16.400000000000002;0.026702724313831843
16.49986239000864;-0.09802327838010808;16.5;0.027002741231426684
16.59986155600869;-0.09919924520765333;16.6;0.027302763863406868
16.699860722008744;-0.10035328885961049;16.7;0.027602779762794735
16.799859888008797;-0.10153457141200822;16.8;0.02790279668097851
16.89985905400885;-0.10269857960495724;16.900000000000002;0.028202819312958694
16.9998582200089;-0.1038976485472198;17.0;0.02850283521175764
17.099857386008953;-0.10506240425111728;17.1;0.028802852125862578
17.199856552009006;-0.10624495646322246;17.2;0.029102869040021462
17.29985571800906;-0.10742068492405284;17.3;0.029402890660720542
17.399854884009113;-0.1085788447776029;17.400000000000002;0.029702907574825483
17.499854050009162;-0.10976520447596201;17.5;0.030002924489469965
17.599853216009215;-0.1109273746469886;17.6;0.030302946109683447
17.69985238200927;-0.11210209112714432;17.7;0.030602963023788374
17.799851548009322;-0.11327284890336871;17.8;0.03090297993891847
17.89985071400937;-0.11444526776023722;17.900000000000002;0.031203002776488485
17.999849880009425;-0.11564240715376357;18.0;0.03150365074722298
18.099849046009478;-0.1167999564196877;18.1;0.03180441212168636
18.19984821200953;-0.11794141139392529;18.2;0.032105178211447837
18.29984737800958;-0.11912312572885136;18.3;0.032405939584396706
18.399846544009634;-0.12029321513835989;18.400000000000002;0.03270670095934689
18.499845710009687;-0.12146860410098087;18.5;0.033007467048621564
18.59984487600974;-0.1226306351082337;18.6;0.033308228421570434
18.69984404200979;-0.12382197631207657;18.7;0.03360898979753681
18.799843208009843;-0.12500056964907455;18.8;0.03390975690254921
18.899842374009896;-0.12614669416940674;18.900000000000002;0.03421051725874417
18.99984154000995;-0.12731628555506733;19.0;0.034511278631693024
19.09984070601;-0.128486891693012;19.1;0.0348120400046419
19.199839872010052;-0.12969353934859024;19.200000000000003;0.035112806095917895
19.299839038010106;-0.1308215238622105;19.3;0.03541356746886676
19.39983820401016;-0.13199179619381987;19.400000000000002;0.03571432884181563
19.499837370010212;-0.13316877710722952;19.5;0.036015094933091615
19.59983653601026;-0.13432701140604306;19.6;0.036315856306040485
19.699835702010315;-0.13549704332697868;19.700000000000003;0.036616617679133594
19.799834868010368;-0.13666757380008132;19.8;0.03691738377026534
19.89983403401042;-0.137858683127263;19.900000000000002;0.03721814514321421
19.99983320001047;-0.13902839736673775;20.0;0.03751890651679412
20.099832366010524;-0.14019326302500656;20.1;0.03781967260743907
20.199831532010577;-0.14136422746388116;20.200000000000003;0.03812043398038795
20.29983069801063;-0.1425370667229312;20.3;0.03842119535445466
20.39982986401068;-0.14371143847021287;20.400000000000002;0.038721961444612804
20.499829030010734;-0.14486045644540335;20.5;0.03902272281756166
20.599828196010787;-0.14603713761626325;20.6;0.03932348419211519
20.69982736201084;-0.14720937219480093;20.700000000000003;0.03962425028178653
20.79982652801089;-0.14837403856438217;20.8;0.039925011654735394
20.899825694010943;-0.1495604324309097;20.900000000000002;0.04022577303022073
20.999824860010996;-0.15072071068648413;21.0;0.04052654013523311
21.09982402601105;-0.1518914268076544;21.1;0.04082730049190912
21.1998231920111;-0.15306376039146855;21.200000000000003;0.04112806186485799
21.299822358011152;-0.15423584181789615;21.3;0.041428823237806854
21.399821524011205;-0.15540893642514744;21.400000000000002;0.04172872662303145
21.49982069001126;-0.15656369270306475;21.5;0.042027999078292445
21.59981985601131;-0.15774055771788725;21.6;0.04232727153355345
21.69981902201136;-0.15890831362663108;21.700000000000003;0.04262654868378352
21.799818188011415;-0.1600752582196922;21.8;0.04292582113904452
21.899817354011468;-0.16122184117374086;21.900000000000002;0.04322509359430553
21.99981652001152;-0.16238684281081087;22.0;0.04352437074453559
22.09981568601157;-0.16358625431465026;22.1;0.0438236431997966
22.199814852011624;-0.1647422682843007;22.200000000000003;0.044122915655290834
22.299814018011677;-0.1659292803276477;22.3;0.04442219280528767
22.39981318401173;-0.1670995167862171;22.400000000000002;0.044721465260548675
22.49981235001178;-0.16826545262935494;22.5;0.045020737716527294
22.599811516011833;-0.16945640317786734;22.6;0.045320014866039746
22.699810682011886;-0.17060659804427333;22.700000000000003;0.04561928732130075
22.79980984801194;-0.17176838120766438;22.8;0.04591855977776377
22.89980901401199;-0.172956344966771;22.900000000000002;0.04621783692679183
22.999808180012042;-0.174119671321609;23.0;0.04651710938205282
23.099807346012096;-0.17529503386988568;23.1;0.04681638183731383
23.19980651201215;-0.17646887429535668;23.200000000000003;0.04711565429257483
23.2998056780122;-0.177640483618508;23.3;0.0474149314428049
23.39980484401225;-0.17881354643083458;23.400000000000002;0.0477142038980659
23.499804010012305;-0.17998078239415577;23.5;0.0480134763533269
23.599803176012358;-0.18117925689377523;23.6;0.048312753503556974
23.69980234201241;-0.18234443448164603;23.700000000000003;0.04861202595881798
23.79980150801246;-0.18350355574975494;23.8;0.04891129841407898
23.899800674012514;-0.18467327032680808;23.900000000000002;0.04921057556430905
23.999799840012567;-0.18586978540715618;24.0;0.04950984801957005
24.09979900601262;-0.18702705955499915;24.1;0.049809120474831055
24.19979817201267;-0.1882014180224238;24.200000000000003;0.050108397625061134
24.299797338012723;-0.1893685293988998;24.3;0.050407670080322126
24.399796504012777;-0.19053712461326036;24.400000000000002;0.05070694253558313
24.49979567001283;-0.19171646821034433;24.5;0.051006219685813196
24.59979483601288;-0.19288587290057535;24.6;0.0513054921410742
24.699794002012933;-0.19406117799917744;24.700000000000003;0.05160476459665814
24.799793168012986;-0.19524031233110586;24.8;0.05190404174656527
24.89979233401304;-0.19643496085569437;24.900000000000002;0.05220331420182628
24.99979150001309;-0.19757610171869158;25.0;0.052502586657894604
25.099790666013142;-0.1987294944581335;25.1;0.05280186380731735
25.199789832013195;-0.1999423664510034;25.200000000000003;0.053101136262578355
25.29978899801325;-0.2010960157739661;25.3;0.053400408717839354
25.399788164013298;-0.20229481421062917;25.400000000000002;0.05369968117310036
25.49978733001335;-0.20346680300671996;25.5;0.053998958323330425
25.599786496013405;-0.20462864993935312;25.6;0.05429823077859143
25.699785662013458;-0.20582190763755373;25.700000000000003;0.054597503233852436
25.79978482801351;-0.20698670388301488;25.8;0.0548967803840825
25.89978399401356;-0.2081799772462592;25.900000000000002;0.05519605283934351
25.999783160013614;-0.20933222062572424;26.0;0.055495325294604506
26.099782326013667;-0.21052905855086335;26.1;0.05579460244483458
26.19978149201372;-0.2116872339699793;26.200000000000003;0.05609387490009558
26.29978065801377;-0.2128643916006532;26.3;0.05639314735535658
26.399779824013823;-0.2140560965100008;26.400000000000002;0.056692424505586654
26.499778990013876;-0.21523377097179267;26.5;0.05699169696084765
26.59977815601393;-0.2163999586081862;26.6;0.05729096941610866
26.69977732201398;-0.2175740964335801;26.700000000000003;0.05759024656633874
26.799776488014032;-0.2187833929598305;26.8;0.05788951902159973
26.899775654014086;-0.21994385672744787;26.900000000000002;0.058188791476860735
26.99977482001414;-0.22111009644263876;27.0;0.0584880686270908
27.09977398601419;-0.22230041072447862;27.1;0.058787341082351806
27.19977315201424;-0.22349300586002324;27.200000000000003;0.05908661353802545
27.299772318014295;-0.2246786781178567;27.3;0.05938589068784288
27.399771484014348;-0.22582813782114566;27.400000000000002;0.05968516314310388
27.499770650014398;-0.22701192217471416;27.5;0.05998443559836488
27.59976981601445;-0.22819301692093863;27.6;0.06028370805362589
27.699768982014504;-0.22937554300749788;27.700000000000003;0.060582985203855966
27.799768148014557;-0.23054286313830097;27.8;0.06088225765911696
27.89976731401461;-0.23171006085752216;27.900000000000002;0.06118153011437796
